# Pulseq sequence file
# Created by PyPulseq

[VERSION]
major 1
minor 4
revision 2

[DEFINITIONS]
AdcRasterTime 1e-07 
BlockDurationRaster 1e-05 
GradientRasterTime 1e-05 
RadiofrequencyRasterTime 1e-06 
TotalDuration 31.50018 

# Format of blocks:
# NUM DUR RF  GX  GY  GZ  ADC  EXT
[BLOCKS]
  1   2   0   0   0   0  0  5
  2 326   1   0   0   1  0  0
  3  90   0   0   0   2  0  0
  4 572   0   3   3   3  0  0
  5 138   0   0   0   4  0  0
  6 617   2   0   0   5  0  0
  7 138   0   0   0   4  0  0
  8 572   0   3   3   3  0  0
  9 255   0   0   0   0  0  0
 10 2822   0   6   7   0  1  0
 11  66   0   8   9   0  0  0
 12 414   0  10  10  10  0  0
 13 43988   0   0   0   0  0  0
 14   2   0   0   0   0  0  6
 15 326   1   0   0   1  0  0
 16  90   0   0   0   2  0  0
 17 572   0   3   3   3  0  0
 18 138   0   0   0   4  0  0
 19 617   2   0   0   5  0  0
 20 138   0   0   0   4  0  0
 21 572   0   3   3   3  0  0
 22 255   0   0   0   0  0  0
 23 2826   0  11  12   0  1  0
 24  72   0  13  14   0  0  0
 25 414   0  10  10  10  0  0
 26 43978   0   0   0   0  0  0
 27   2   0   0   0   0  0  7
 28 326   1   0   0   1  0  0
 29  90   0   0   0   2  0  0
 30 572   0   3   3   3  0  0
 31 138   0   0   0   4  0  0
 32 617   2   0   0   5  0  0
 33 138   0   0   0   4  0  0
 34 572   0   3   3   3  0  0
 35 255   0   0   0   0  0  0
 36 2829   0  15  16   0  1  0
 37  66   0  17  18   0  0  0
 38 414   0  10  10  10  0  0
 39 43982   0   0   0   0  0  0
 40   2   0   0   0   0  0  9
 41 326   1   0   0   1  0  0
 42  90   0   0   0   2  0  0
 43 572   0  19   3   3  0  0
 44 138   0   0   0   4  0  0
 45 617   2   0   0   5  0  0
 46 138   0   0   0   4  0  0
 47 572   0  19   3   3  0  0
 48 255   0   0   0   0  0  0
 49 2822   0   6   7   0  1  0
 50  66   0   8   9   0  0  0
 51 414   0  10  10  10  0  0
 52 43989   0   0   0   0  0  0
 53   2   0   0   0   0  0 11
 54 326   1   0   0   1  0  0
 55  90   0   0   0   2  0  0
 56 572   0  19   3   3  0  0
 57 138   0   0   0   4  0  0
 58 617   2   0   0   5  0  0
 59 138   0   0   0   4  0  0
 60 572   0  19   3   3  0  0
 61 255   0   0   0   0  0  0
 62 2826   0  11  12   0  1  0
 63  72   0  13  14   0  0  0
 64 414   0  10  10  10  0  0
 65 43978   0   0   0   0  0  0
 66   2   0   0   0   0  0 13
 67 326   1   0   0   1  0  0
 68  90   0   0   0   2  0  0
 69 572   0  19   3   3  0  0
 70 138   0   0   0   4  0  0
 71 617   2   0   0   5  0  0
 72 138   0   0   0   4  0  0
 73 572   0  19   3   3  0  0
 74 255   0   0   0   0  0  0
 75 2829   0  15  16   0  1  0
 76  66   0  17  18   0  0  0
 77 414   0  10  10  10  0  0
 78 43981   0   0   0   0  0  0
 79   2   0   0   0   0  0 14
 80 326   1   0   0   1  0  0
 81  90   0   0   0   2  0  0
 82 572   0  20   3   3  0  0
 83 138   0   0   0   4  0  0
 84 617   2   0   0   5  0  0
 85 138   0   0   0   4  0  0
 86 572   0  20   3   3  0  0
 87 255   0   0   0   0  0  0
 88 2822   0   6   7   0  1  0
 89  66   0   8   9   0  0  0
 90 414   0  10  10  10  0  0
 91 43988   0   0   0   0  0  0
 92   2   0   0   0   0  0 15
 93 326   1   0   0   1  0  0
 94  90   0   0   0   2  0  0
 95 572   0  20   3   3  0  0
 96 138   0   0   0   4  0  0
 97 617   2   0   0   5  0  0
 98 138   0   0   0   4  0  0
 99 572   0  20   3   3  0  0
100 255   0   0   0   0  0  0
101 2826   0  11  12   0  1  0
102  72   0  13  14   0  0  0
103 414   0  10  10  10  0  0
104 43978   0   0   0   0  0  0
105   2   0   0   0   0  0 16
106 326   1   0   0   1  0  0
107  90   0   0   0   2  0  0
108 572   0  20   3   3  0  0
109 138   0   0   0   4  0  0
110 617   2   0   0   5  0  0
111 138   0   0   0   4  0  0
112 572   0  20   3   3  0  0
113 255   0   0   0   0  0  0
114 2829   0  15  16   0  1  0
115  66   0  17  18   0  0  0
116 414   0  10  10  10  0  0
117 43981   0   0   0   0  0  0
118   2   0   0   0   0  0 17
119 326   1   0   0   1  0  0
120  90   0   0   0   2  0  0
121 572   0   3  19   3  0  0
122 138   0   0   0   4  0  0
123 617   2   0   0   5  0  0
124 138   0   0   0   4  0  0
125 572   0   3  19   3  0  0
126 255   0   0   0   0  0  0
127 2822   0   6   7   0  1  0
128  66   0   8   9   0  0  0
129 414   0  10  10  10  0  0
130 43988   0   0   0   0  0  0
131   2   0   0   0   0  0 18
132 326   1   0   0   1  0  0
133  90   0   0   0   2  0  0
134 572   0   3  19   3  0  0
135 138   0   0   0   4  0  0
136 617   2   0   0   5  0  0
137 138   0   0   0   4  0  0
138 572   0   3  19   3  0  0
139 255   0   0   0   0  0  0
140 2826   0  11  12   0  1  0
141  72   0  13  14   0  0  0
142 414   0  10  10  10  0  0
143 43978   0   0   0   0  0  0
144   2   0   0   0   0  0 19
145 326   1   0   0   1  0  0
146  90   0   0   0   2  0  0
147 572   0   3  19   3  0  0
148 138   0   0   0   4  0  0
149 617   2   0   0   5  0  0
150 138   0   0   0   4  0  0
151 572   0   3  19   3  0  0
152 255   0   0   0   0  0  0
153 2829   0  15  16   0  1  0
154  66   0  17  18   0  0  0
155 414   0  10  10  10  0  0
156 43981   0   0   0   0  0  0
157   2   0   0   0   0  0 20
158 326   1   0   0   1  0  0
159  90   0   0   0   2  0  0
160 572   0   3  20   3  0  0
161 138   0   0   0   4  0  0
162 617   2   0   0   5  0  0
163 138   0   0   0   4  0  0
164 572   0   3  20   3  0  0
165 255   0   0   0   0  0  0
166 2822   0   6   7   0  1  0
167  66   0   8   9   0  0  0
168 414   0  10  10  10  0  0
169 43988   0   0   0   0  0  0
170   2   0   0   0   0  0 21
171 326   1   0   0   1  0  0
172  90   0   0   0   2  0  0
173 572   0   3  20   3  0  0
174 138   0   0   0   4  0  0
175 617   2   0   0   5  0  0
176 138   0   0   0   4  0  0
177 572   0   3  20   3  0  0
178 255   0   0   0   0  0  0
179 2826   0  11  12   0  1  0
180  72   0  13  14   0  0  0
181 414   0  10  10  10  0  0
182 43978   0   0   0   0  0  0
183   2   0   0   0   0  0 22
184 326   1   0   0   1  0  0
185  90   0   0   0   2  0  0
186 572   0   3  20   3  0  0
187 138   0   0   0   4  0  0
188 617   2   0   0   5  0  0
189 138   0   0   0   4  0  0
190 572   0   3  20   3  0  0
191 255   0   0   0   0  0  0
192 2829   0  15  16   0  1  0
193  66   0  17  18   0  0  0
194 414   0  10  10  10  0  0
195 43981   0   0   0   0  0  0
196   2   0   0   0   0  0 23
197 326   1   0   0   1  0  0
198  90   0   0   0   2  0  0
199 572   0   3   3  19  0  0
200 138   0   0   0   4  0  0
201 617   2   0   0   5  0  0
202 138   0   0   0   4  0  0
203 572   0   3   3  19  0  0
204 255   0   0   0   0  0  0
205 2822   0   6   7   0  1  0
206  66   0   8   9   0  0  0
207 414   0  10  10  10  0  0
208 43988   0   0   0   0  0  0
209   2   0   0   0   0  0 24
210 326   1   0   0   1  0  0
211  90   0   0   0   2  0  0
212 572   0   3   3  19  0  0
213 138   0   0   0   4  0  0
214 617   2   0   0   5  0  0
215 138   0   0   0   4  0  0
216 572   0   3   3  19  0  0
217 255   0   0   0   0  0  0
218 2826   0  11  12   0  1  0
219  72   0  13  14   0  0  0
220 414   0  10  10  10  0  0
221 43979   0   0   0   0  0  0
222   2   0   0   0   0  0 25
223 326   1   0   0   1  0  0
224  90   0   0   0   2  0  0
225 572   0   3   3  19  0  0
226 138   0   0   0   4  0  0
227 617   2   0   0   5  0  0
228 138   0   0   0   4  0  0
229 572   0   3   3  19  0  0
230 255   0   0   0   0  0  0
231 2829   0  15  16   0  1  0
232  66   0  17  18   0  0  0
233 414   0  10  10  10  0  0
234 43982   0   0   0   0  0  0
235   2   0   0   0   0  0 26
236 326   1   0   0   1  0  0
237  90   0   0   0   2  0  0
238 572   0   3   3  20  0  0
239 138   0   0   0   4  0  0
240 617   2   0   0   5  0  0
241 138   0   0   0   4  0  0
242 572   0   3   3  20  0  0
243 255   0   0   0   0  0  0
244 2822   0   6   7   0  1  0
245  66   0   8   9   0  0  0
246 414   0  10  10  10  0  0
247 43989   0   0   0   0  0  0
248   2   0   0   0   0  0 27
249 326   1   0   0   1  0  0
250  90   0   0   0   2  0  0
251 572   0   3   3  20  0  0
252 138   0   0   0   4  0  0
253 617   2   0   0   5  0  0
254 138   0   0   0   4  0  0
255 572   0   3   3  20  0  0
256 255   0   0   0   0  0  0
257 2826   0  11  12   0  1  0
258  72   0  13  14   0  0  0
259 414   0  10  10  10  0  0
260 43979   0   0   0   0  0  0
261   2   0   0   0   0  0 28
262 326   1   0   0   1  0  0
263  90   0   0   0   2  0  0
264 572   0   3   3  20  0  0
265 138   0   0   0   4  0  0
266 617   2   0   0   5  0  0
267 138   0   0   0   4  0  0
268 572   0   3   3  20  0  0
269 255   0   0   0   0  0  0
270 2829   0  15  16   0  1  0
271  66   0  17  18   0  0  0
272 414   0  10  10  10  0  0
273 43982   0   0   0   0  0  0
274   2   0   0   0   0  0 31
275 326   3   0   0   1  0  0
276  90   0   0   0   2  0  0
277 572   0   3   3   3  0  0
278 138   0   0   0   4  0  0
279 617   4   0   0   5  0  0
280 138   0   0   0   4  0  0
281 572   0   3   3   3  0  0
282 255   0   0   0   0  0  0
283 2822   0   6   7   0  1  0
284  66   0   8   9   0  0  0
285 414   0  10  10  10  0  0
286 43989   0   0   0   0  0  0
287   2   0   0   0   0  0 33
288 326   3   0   0   1  0  0
289  90   0   0   0   2  0  0
290 572   0   3   3   3  0  0
291 138   0   0   0   4  0  0
292 617   4   0   0   5  0  0
293 138   0   0   0   4  0  0
294 572   0   3   3   3  0  0
295 255   0   0   0   0  0  0
296 2826   0  11  12   0  1  0
297  72   0  13  14   0  0  0
298 414   0  10  10  10  0  0
299 43979   0   0   0   0  0  0
300   2   0   0   0   0  0 35
301 326   3   0   0   1  0  0
302  90   0   0   0   2  0  0
303 572   0   3   3   3  0  0
304 138   0   0   0   4  0  0
305 617   4   0   0   5  0  0
306 138   0   0   0   4  0  0
307 572   0   3   3   3  0  0
308 255   0   0   0   0  0  0
309 2829   0  15  16   0  1  0
310  66   0  17  18   0  0  0
311 414   0  10  10  10  0  0
312 43982   0   0   0   0  0  0
313   2   0   0   0   0  0 38
314 326   3   0   0   1  0  0
315  90   0   0   0   2  0  0
316 572   0  19   3   3  0  0
317 138   0   0   0   4  0  0
318 617   4   0   0   5  0  0
319 138   0   0   0   4  0  0
320 572   0  19   3   3  0  0
321 255   0   0   0   0  0  0
[RF]
1      332.034 1 2 3 130 -4000 39.295
2      332.034 4 5 6 100 -2000 37.7117
3      332.034 1 2 3 130 0 1.5708
4      332.034 4 5 6 100 0 -0
5      332.034 1 2 3 130 4000 -36.1534
6      332.034 4 5 6 100 2000 -37.7117

# Format of arbitrary gradients:
#   time_shape_id of 0 means default timing (stepping with grad_raster starting at 1/2 of grad_raster)
# id amplitude amp_shape_id time_shape_id delay
# ..      Hz/m       ..         ..          us
[GRADIENTS]
6       982457 7 8 0
7       990547 9 8 0
11      -987907 10 11 0
12       979803 12 11 0
15      -993352 13 14 0
16      -985154 15 14 0

# Format of trapezoid gradients:
# id amplitude rise flat fall delay
# ..      Hz/m   us   us   us    us
[TRAP]
 1       266667 130 3000 130   0
 2      -927407 450    0 450   0
 3            0  10 5700  10   0
 4  1.44928e+06 690    0 690   0
 5       133333  70 6000  70  30
 8       732996 250    0 250 160
 9       940679 330    0 330   0
10  1.27389e+06 1000 2140 1000   0
13 -1.02286e+06 360    0 360   0
14      -185146  80    0  80   0
17       784226 270    0 270 120
18      -938411 330    0 330   0
19  6.24805e+06 2100 1520 2100   0
20 -6.24805e+06 2100 1520 2100   0

# Format of ADC events:
# id num dwell delay freq phase
# ..  ..    ns    us   Hz   rad
[ADC]
1 27928 1000 20 0 0

# Format of extension lists:
# id type ref next_id
# next_id of 0 terminates the list
# Extension list is followed by extension specifications
[EXTENSIONS]
1 1 1 0
2 2 1 1
3 1 2 2
4 1 3 3
5 1 4 4
6 1 5 4
7 1 6 4
8 1 4 3
9 1 7 8
10 1 5 3
11 1 7 10
12 1 6 3
13 1 7 12
14 1 8 8
15 1 8 10
16 1 8 12
17 1 9 8
18 1 9 10
19 1 9 12
20 1 10 8
21 1 10 10
22 1 10 12
23 1 11 8
24 1 11 10
25 1 11 12
26 1 12 8
27 1 12 10
28 1 12 12
29 1 3 2
30 1 4 29
31 1 13 30
32 1 5 29
33 1 13 32
34 1 6 29
35 1 13 34
36 1 4 2
37 1 7 36
38 1 13 37
39 1 5 2
40 1 7 39
41 1 13 40
42 1 6 2
43 1 7 42
44 1 13 43
45 1 8 36
46 1 13 45
47 1 8 39
48 1 13 47
49 1 8 42
50 1 13 49
51 1 9 36
52 1 13 51
53 1 9 39
54 1 13 53
55 1 9 42
56 1 13 55
57 1 10 36
58 1 13 57
59 1 10 39
60 1 13 59
61 1 10 42
62 1 13 61
63 1 11 36
64 1 13 63
65 1 11 39
66 1 13 65
67 1 11 42
68 1 13 67
69 1 12 36
70 1 13 69
71 1 12 39
72 1 13 71
73 1 12 42
74 1 13 73
75 1 14 30
76 1 14 32
77 1 14 34
78 1 14 37
79 1 14 40
80 1 14 43
81 1 14 45
82 1 14 47
83 1 14 49
84 1 14 51
85 1 14 53
86 1 14 55
87 1 14 57
88 1 14 59
89 1 14 61
90 1 14 63
91 1 14 65
92 1 14 67
93 1 14 69
94 1 14 71
95 1 14 73

# Extension specification for digital output and input triggers:
# id type channel delay (us) duration (us)
extension TRIGGERS 2
1 1 3 0 20

# Extension specification for setting labels:
# id set labelstring
extension LABELSET 1
1 0 REP
2 0 SLC
3 0 SEG
4 0 AVG
5 1 AVG
6 2 AVG
7 1 SEG
8 2 SEG
9 3 SEG
10 4 SEG
11 5 SEG
12 6 SEG
13 1 SLC
14 2 SLC

# Sequence Shapes
[SHAPES]

shape_id 1
num_samples 3020
1.27324157e-07
5.34969242e-05
0.000106940884
0.000160462457
0.000214064908
0.000267751506
0.000321525532
0.000375390269
0.000429349014
0.000483405065
0.00053756173
0.000591822324
0.000646190166
0.000700668584
0.000755260909
0.000809970481
0.000864800643
0.000919754744
0.000974836138
0.00103004818
0.00108539424
0.00114087769
0.00119650189
0.00125227021
0.00130818605
0.00136425278
0.00142047378
0.00147685246
0.00153339219
0.00159009637
0.00164696839
0.00170401166
0.00176122957
0.00181862553
0.00187620293
0.00193396519
0.00199191569
0.00205005785
0.00210839508
0.00216693076
0.00222566832
0.00228461115
0.00234376265
0.00240312623
0.00246270529
0.00252250322
0.00258252343
0.0026427693
0.00270324424
0.00276395162
0.00282489485
0.00288607729
0.00294750234
0.00300917337
0.00307109376
0.00313326687
0.00319569606
0.00325838471
0.00332133617
0.00338455378
0.0034480409
0.00351180086
0.00357583699
0.00364015263
0.0037047511
0.00376963571
0.00383480977
0.00390027658
0.00396603943
0.00403210162
0.00409846641
0.00416513708
0.00423211689
0.00429940909
0.00436701693
0.00443494365
0.00450319245
0.00457176657
0.00464066921
0.00470990356
0.0047794728
0.00484938012
0.00491962867
0.0049902216
0.00506116206
0.00513245317
0.00520409805
0.00527609981
0.00534846152
0.00542118628
0.00549427715
0.00556773717
0.0056415694
0.00571577684
0.00579036251
0.00586532941
0.00594068051
0.00601641879
0.00609254719
0.00616906865
0.00624598609
0.0063233024
0.00640102049
0.00647914321
0.00655767342
0.00663661396
0.00671596765
0.00679573728
0.00687592565
0.00695653552
0.00703756963
0.00711903072
0.00720092149
0.00728324463
0.00736600282
0.0074491987
0.00753283492
0.00761691407
0.00770143875
0.00778641154
0.00787183497
0.00795771158
0.00804404388
0.00813083434
0.00821808544
0.00830579961
0.00839397927
0.00848262681
0.00857174462
0.00866133502
0.00875140036
0.00884194293
0.00893296502
0.00902446886
0.0091164567
0.00920893074
0.00930189315
0.00939534608
0.00948929168
0.00958373203
0.00967866921
0.00977410528
0.00987004225
0.00996648213
0.0100634269
0.0101608784
0.0102588387
0.0103573096
0.010456293
0.0105557907
0.0106558045
0.0107563361
0.0108573874
0.01095896
0.0110610557
0.011163676
0.0112668226
0.0113704971
0.0114747011
0.0115794361
0.0116847035
0.011790505
0.0118968418
0.0120037155
0.0121111273
0.0122190787
0.0123275709
0.0124366053
0.012546183
0.0126563054
0.0127669734
0.0128781885
0.0129899515
0.0131022637
0.013215126
0.0133285394
0.013442505
0.0135570237
0.0136720964
0.0137877239
0.0139039071
0.0140206468
0.0141379437
0.0142557986
0.0143742122
0.0144931851
0.014612718
0.0147328113
0.0148534657
0.0149746817
0.0150964597
0.0152188002
0.0153417035
0.0154651701
0.0155892001
0.0157137939
0.0158389518
0.0159646739
0.0160909603
0.0162178113
0.0163452269
0.016473207
0.0166017518
0.0167308611
0.016860535
0.0169907732
0.0171215756
0.017252942
0.0173848721
0.0175173657
0.0176504224
0.0177840419
0.0179182238
0.0180529675
0.0181882726
0.0183241385
0.0184605647
0.0185975505
0.0187350953
0.0188731983
0.0190118588
0.019151076
0.0192908491
0.019431177
0.019572059
0.0197134941
0.0198554811
0.0199980191
0.0201411069
0.0202847434
0.0204289273
0.0205736575
0.0207189326
0.0208647513
0.0210111122
0.0211580138
0.0213054548
0.0214534335
0.0216019484
0.0217509979
0.0219005803
0.0220506939
0.022201337
0.0223525076
0.0225042041
0.0226564245
0.0228091668
0.022962429
0.0231162091
0.023270505
0.0234253146
0.0235806357
0.023736466
0.0238928032
0.0240496451
0.0242069891
0.024364833
0.0245231743
0.0246820102
0.0248413385
0.0250011562
0.0251614609
0.0253222498
0.02548352
0.0256452688
0.0258074933
0.0259701906
0.0261333576
0.0262969914
0.0264610889
0.0266256469
0.0267906622
0.0269561317
0.027122052
0.0272884199
0.0274552318
0.0276224845
0.0277901744
0.0279582979
0.0281268515
0.0282958316
0.0284652344
0.0286350562
0.0288052932
0.0289759416
0.0291469975
0.0293184569
0.0294903158
0.0296625701
0.0298352158
0.0300082487
0.0301816646
0.0303554592
0.0305296282
0.0307041672
0.0308790718
0.0310543376
0.03122996
0.0314059345
0.0315822563
0.0317589209
0.0319359235
0.0321132593
0.0322909234
0.032468911
0.0326472172
0.0328258368
0.0330047649
0.0331839964
0.0333635261
0.0335433487
0.0337234591
0.0339038519
0.0340845217
0.0342654632
0.0344466707
0.0346281389
0.0348098621
0.0349918347
0.035174051
0.0353565052
0.0355391916
0.0357221042
0.0359052373
0.0360885848
0.0362721408
0.0364558992
0.0366398537
0.0368239984
0.037008327
0.0371928332
0.0373775106
0.0375623529
0.0377473536
0.0379325064
0.0381178045
0.0383032415
0.0384888107
0.0386745053
0.0388603187
0.0390462441
0.0392322745
0.039418403
0.0396046228
0.0397909268
0.0399773079
0.0401637589
0.0403502728
0.0405368423
0.0407234602
0.040910119
0.0410968114
0.04128353
0.0414702673
0.0416570157
0.0418437677
0.0420305156
0.0422172517
0.0424039683
0.0425906575
0.0427773116
0.0429639226
0.0431504825
0.0433369834
0.0435234172
0.0437097758
0.043896051
0.0440822346
0.0442683184
0.0444542941
0.0446401532
0.0448258874
0.0450114882
0.0451969471
0.0453822555
0.0455674048
0.0457523864
0.0459371915
0.0461218113
0.0463062371
0.04649046
0.0466744711
0.0468582613
0.0470418218
0.0472251433
0.0474082169
0.0475910333
0.0477735833
0.0479558578
0.0481378473
0.0483195425
0.048500934
0.0486820124
0.0488627682
0.0490431918
0.0492232735
0.0494030039
0.0495823731
0.0497613715
0.0499399893
0.0501182166
0.0502960435
0.0504734601
0.0506504565
0.0508270227
0.0510031485
0.0511788239
0.0513540387
0.0515287826
0.0517030456
0.0518768172
0.0520500872
0.0522228451
0.0523950805
0.052566783
0.052737942
0.052908547
0.0530785874
0.0532480525
0.0534169317
0.0535852142
0.0537528892
0.0539199459
0.0540863735
0.0542521611
0.0544172977
0.0545817722
0.0547455738
0.0549086913
0.0550711136
0.0552328296
0.055393828
0.0555540977
0.0557136273
0.0558724055
0.056030421
0.0561876624
0.0563441183
0.0564997771
0.0566546274
0.0568086576
0.0569618562
0.0571142114
0.0572657117
0.0574163453
0.0575661005
0.0577149655
0.0578629284
0.0580099776
0.0581561009
0.0583012866
0.0584455227
0.0585887971
0.0587310978
0.0588724129
0.05901273
0.0591520372
0.0592903223
0.059427573
0.0595637772
0.0596989224
0.0598329965
0.0599659871
0.0600978819
0.0602286683
0.060358334
0.0604868666
0.0606142534
0.0607404821
0.06086554
0.0609894145
0.061112093
0.0612335629
0.0613538115
0.0614728261
0.0615905938
0.0617071021
0.061822338
0.0619362887
0.0620489415
0.0621602833
0.0622703014
0.0623789827
0.0624863143
0.0625922832
0.0626968764
0.0628000809
0.0629018836
0.0630022714
0.0631012312
0.0631987499
0.0632948143
0.0633894112
0.0634825274
0.0635741496
0.0636642647
0.0637528593
0.0638399202
0.063925434
0.0640093874
0.0640917671
0.0641725595
0.0642517515
0.0643293294
0.0644052799
0.0644795895
0.0645522448
0.0646232323
0.0646925383
0.0647601495
0.0648260522
0.0648902329
0.064952678
0.0650133738
0.0650723069
0.0651294635
0.0651848301
0.0652383928
0.0652901382
0.0653400524
0.0653881218
0.0654343327
0.0654786713
0.065521124
0.0655616768
0.0656003162
0.0656370282
0.0656717992
0.0657046153
0.0657354628
0.0657643277
0.0657911963
0.0658160548
0.0658388893
0.0658596859
0.0658784308
0.0658951101
0.06590971
0.0659222166
0.0659326159
0.0659408942
0.0659470375
0.0659510318
0.0659528634
0.0659525182
0.0659499824
0.0659452421
0.0659382833
0.0659290921
0.0659176547
0.065903957
0.0658879851
0.0658697251
0.0658491631
0.0658262852
0.0658010774
0.0657735258
0.0657436165
0.0657113356
0.065676669
0.065639603
0.0656001236
0.0655582169
0.065513869
0.0654670659
0.0654177938
0.0653660388
0.065311787
0.0652550245
0.0651957374
0.0651339119
0.0650695341
0.0650025902
0.0649330662
0.0648609485
0.064786223
0.0647088761
0.0646288939
0.0645462626
0.0644609684
0.0643729976
0.0642823364
0.064188971
0.0640928877
0.0639940727
0.0638925124
0.063788193
0.0636811009
0.0635712224
0.0634585438
0.0633430516
0.063224732
0.0631035714
0.0629795564
0.0628526732
0.0627229084
0.0625902483
0.0624546796
0.0623161887
0.0621747621
0.0620303863
0.061883048
0.0617327336
0.0615794299
0.0614231233
0.0612638007
0.0611014486
0.0609360537
0.0607676028
0.0605960826
0.0604214799
0.0602437814
0.060062974
0.0598790445
0.0596919798
0.0595017668
0.0593083924
0.0591118436
0.0589121073
0.0587091705
0.0585030204
0.0582936439
0.0580810281
0.0578651603
0.0576460275
0.0574236169
0.0571979157
0.0569689113
0.0567365909
0.0565009418
0.0562619513
0.056019607
0.0557738961
0.0555248061
0.0552723246
0.055016439
0.054757137
0.0544944061
0.054228234
0.0539586084
0.0536855169
0.0534089473
0.0531288875
0.0528453252
0.0525582483
0.0522676448
0.0519735025
0.0516758096
0.051374554
0.0510697237
0.0507613071
0.0504492921
0.050133667
0.0498144201
0.0494915397
0.0491650141
0.0488348317
0.0485009809
0.0481634502
0.0478222282
0.0474773033
0.0471286644
0.0467762999
0.0464201987
0.0460603494
0.045696741
0.0453293623
0.0449582022
0.0445832496
0.0442044937
0.0438219234
0.0434355279
0.0430452964
0.0426512181
0.0422532823
0.0418514783
0.0414457955
0.0410362233
0.0406227514
0.0402053691
0.0397840662
0.0393588322
0.038929657
0.0384965303
0.0380594419
0.0376183818
0.0371733399
0.0367243063
0.0362712709
0.0358142239
0.0353531556
0.0348880562
0.034418916
0.0339457254
0.0334684748
0.0329871548
0.0325017558
0.0320122686
0.0315186838
0.0310209922
0.0305191846
0.030013252
0.0295031851
0.0289889752
0.0284706132
0.0279480903
0.0274213977
0.0268905268
0.0263554688
0.0258162152
0.0252727575
0.0247250873
0.0241731961
0.0236170756
0.0230567177
0.0224921142
0.021923257
0.0213501381
0.0207727495
0.0201910833
0.0196051318
0.0190148872
0.0184203418
0.0178214882
0.0172183187
0.016610826
0.0159990027
0.0153828415
0.0147623352
0.0141374766
0.0135082588
0.0128746747
0.0122367174
0.0115943802
0.0109476562
0.0102965388
0.00964102147
0.00898109762
0.00831676085
0.0076480048
0.00697482322
0.0062972099
0.00561515874
0.00492866371
0.00423771887
0.00354231835
0.00284245637
0.00213812723
0.00142932532
0.000716045098
1.71887886e-06
0.000723971977
0.00145071948
0.00218196658
0.00291771839
0.00365797994
0.00440275617
0.00515205193
0.00590587199
0.00666422103
0.00742710365
0.00819452435
0.00896648755
0.00974299759
0.0105240587
0.0113096751
0.0120998507
0.0128945896
0.0136938957
0.0144977728
0.0153062245
0.0161192545
0.0169368663
0.0177590633
0.018585849
0.0194172265
0.020253199
0.0210937695
0.0219389411
0.0227887167
0.0236430989
0.0245020906
0.0253656943
0.0262339125
0.0271067476
0.027984202
0.0288662779
0.0297529774
0.0306443025
0.0315402553
0.0324408374
0.0333460508
0.034255897
0.0351703775
0.0360894939
0.0370132475
0.0379416396
0.0388746713
0.0398123437
0.0407546577
0.0417016143
0.0426532142
0.0436094581
0.0445703466
0.04553588
0.0465060589
0.0474808835
0.0484603539
0.0494444702
0.0504332325
0.0514266405
0.0524246941
0.053427393
0.0544347366
0.0554467245
0.056463356
0.0574846304
0.0585105469
0.0595411046
0.0605763023
0.0616161389
0.0626606133
0.063709724
0.0647634695
0.0658218485
0.0668848591
0.0679524996
0.0690247681
0.0701016627
0.0711831813
0.0722693218
0.0733600817
0.0744554588
0.0755554505
0.0766600543
0.0777692674
0.078883087
0.0800015102
0.081124534
0.0822521553
0.0833843707
0.0845211771
0.0856625708
0.0868085485
0.0879591063
0.0891142406
0.0902739475
0.0914382229
0.0926070629
0.0937804632
0.0949584194
0.0961409273
0.0973279822
0.0985195796
0.0997157147
0.100916383
0.102121579
0.103331297
0.104545534
0.105764283
0.106987539
0.108215296
0.109447549
0.110684293
0.111925521
0.113171228
0.114421407
0.115676052
0.116935158
0.118198717
0.119466723
0.120739171
0.122016052
0.12329736
0.124583089
0.12587323
0.127167778
0.128466725
0.129770064
0.131077786
0.132389885
0.133706353
0.135027182
0.136352365
0.137681892
0.139015756
0.14035395
0.141696464
0.14304329
0.144394419
0.145749844
0.147109554
0.148473542
0.149841798
0.151214313
0.152591079
0.153972084
0.155357321
0.15674678
0.158140451
0.159538324
0.160940389
0.162346637
0.163757057
0.16517164
0.166590374
0.16801325
0.169440256
0.170871383
0.17230662
0.173745955
0.175189378
0.176636877
0.178088443
0.179544062
0.181003724
0.182467418
0.183935131
0.185406853
0.18688257
0.188362272
0.189845946
0.191333581
0.192825163
0.19432068
0.195820121
0.197323472
0.19883072
0.200341854
0.201856859
0.203375724
0.204898434
0.206424977
0.20795534
0.209489508
0.211027469
0.212569208
0.214114713
0.215663968
0.217216961
0.218773676
0.220334101
0.22189822
0.223466019
0.225037484
0.2266126
0.228191352
0.229773726
0.231359707
0.232949279
0.234542428
0.236139138
0.237739394
0.23934318
0.240950481
0.242561282
0.244175567
0.245793319
0.247414522
0.249039162
0.250667221
0.252298684
0.253933533
0.255571753
0.257213327
0.258858238
0.260506469
0.262158005
0.263812826
0.265470918
0.267132262
0.268796841
0.270464638
0.272135635
0.273809815
0.27548716
0.277167653
0.278851275
0.280538008
0.282227835
0.283920737
0.285616697
0.287315695
0.289017713
0.290722733
0.292430737
0.294141704
0.295855617
0.297572457
0.299292205
0.30101484
0.302740346
0.304468701
0.306199887
0.307933884
0.309670672
0.311410232
0.313152545
0.314897589
0.316645346
0.318395796
0.320148917
0.32190469
0.323663095
0.325424111
0.327187717
0.328953894
0.33072262
0.332493875
0.334267638
0.336043887
0.337822603
0.339603763
0.341387346
0.343173332
0.344961699
0.346752425
0.348545489
0.35034087
0.352138545
0.353938492
0.355740691
0.357545118
0.359351752
0.361160571
0.362971553
0.364784674
0.366599913
0.368417248
0.370236656
0.372058113
0.373881599
0.375707089
0.37753456
0.379363991
0.381195358
0.383028637
0.384863806
0.386700841
0.388539719
0.390380417
0.392222912
0.394067178
0.395913194
0.397760935
0.399610377
0.401461497
0.403314271
0.405168675
0.407024684
0.408882274
0.410741422
0.412602103
0.414464292
0.416327966
0.418193099
0.420059668
0.421927647
0.423797011
0.425667737
0.427539799
0.429413172
0.431287832
0.433163753
0.43504091
0.436919278
0.438798831
0.440679546
0.442561395
0.444444354
0.446328398
0.4482135
0.450099635
0.451986777
0.453874901
0.455763981
0.457653991
0.459544905
0.461436698
0.463329342
0.465222813
0.467117083
0.469012127
0.470907919
0.472804432
0.47470164
0.476599516
0.478498034
0.480397167
0.482296889
0.484197174
0.486097994
0.487999323
0.489901134
0.4918034
0.493706094
0.49560919
0.49751266
0.499416478
0.501320616
0.503225047
0.505129745
0.507034681
0.508939829
0.510845161
0.51275065
0.514656269
0.51656199
0.518467786
0.520373629
0.522279491
0.524185346
0.526091165
0.527996921
0.529902586
0.531808132
0.533713532
0.535618757
0.537523781
0.539428574
0.541333109
0.543237359
0.545141294
0.547044888
0.548948111
0.550850937
0.552753336
0.554655281
0.556556743
0.558457694
0.560358107
0.562257952
0.564157202
0.566055827
0.567953801
0.569851093
0.571747677
0.573643523
0.575538603
0.577432889
0.579326352
0.581218963
0.583110694
0.585001517
0.586891402
0.588780322
0.590668247
0.59255515
0.594441
0.59632577
0.598209431
0.600091954
0.601973311
0.603853472
0.605732409
0.607610093
0.609486496
0.611361588
0.613235341
0.615107726
0.616978714
0.618848276
0.620716384
0.622583008
0.624448119
0.62631169
0.62817369
0.630034092
0.631892865
0.633749982
0.635605412
0.637459129
0.639311101
0.641161302
0.6430097
0.644856269
0.646700978
0.648543799
0.650384704
0.652223662
0.654060645
0.655895624
0.657728571
0.659559456
0.661388251
0.663214926
0.665039453
0.666861803
0.668681946
0.670499855
0.6723155
0.674128852
0.675939883
0.677748563
0.679554865
0.681358758
0.683160215
0.684959206
0.686755703
0.688549677
0.690341099
0.692129941
0.693916173
0.695699768
0.697480696
0.699258929
0.701034438
0.702807195
0.70457717
0.706344336
0.708108664
0.709870125
0.711628691
0.713384333
0.715137023
0.716886732
0.718633433
0.720377096
0.722117693
0.723855197
0.725589578
0.727320808
0.72904886
0.730773704
0.732495313
0.734213659
0.735928713
0.737640448
0.739348834
0.741053846
0.742755453
0.744453629
0.746148346
0.747839574
0.749527288
0.751211459
0.752892059
0.75456906
0.756242435
0.757912156
0.759578196
0.761240526
0.76289912
0.76455395
0.766204989
0.767852208
0.769495582
0.771135082
0.772770681
0.774402352
0.776030068
0.777653801
0.779273526
0.780889214
0.782500838
0.784108373
0.78571179
0.787311063
0.788906166
0.790497072
0.792083753
0.793666184
0.795244337
0.796818187
0.798387707
0.79995287
0.801513651
0.803070022
0.804621958
0.806169433
0.80771242
0.809250894
0.810784828
0.812314197
0.813838975
0.815359135
0.816874653
0.818385502
0.819891658
0.821393094
0.822889785
0.824381706
0.825868831
0.827351135
0.828828593
0.83030118
0.83176887
0.833231639
0.834689463
0.836142315
0.837590171
0.839033007
0.840470798
0.841903519
0.843331146
0.844753655
0.846171021
0.847583219
0.848990227
0.850392019
0.851788572
0.853179861
0.854565863
0.855946555
0.857321911
0.85869191
0.860056527
0.861415738
0.862769521
0.864117851
0.865460707
0.866798064
0.8681299
0.869456192
0.870776916
0.872092051
0.873401573
0.874705459
0.876003688
0.877296237
0.878583083
0.879864204
0.881139578
0.882409183
0.883672996
0.884930997
0.886183163
0.887429472
0.888669904
0.889904435
0.891133045
0.892355713
0.893572417
0.894783136
0.89598785
0.897186536
0.898379174
0.899565744
0.900746225
0.901920596
0.903088836
0.904250926
0.905406845
0.906556573
0.90770009
0.908837375
0.90996841
0.911093173
0.912211646
0.91332381
0.914429643
0.915529128
0.916622245
0.917708974
0.918789297
