# Pulseq sequence file
# Created by PyPulseq

[VERSION]
major 1
minor 4
revision 1

[DEFINITIONS]
AdcRasterTime 1e-07 
BlockDurationRaster 1e-05 
GradientRasterTime 1e-05 
RadiofrequencyRasterTime 1e-06 
TotalDuration 60.6126 

# Format of blocks:
# NUM DUR RF  GX  GY  GZ  ADC  EXT
[BLOCKS]
  1 124   1   0   0   1  0  0
  2  52   0   0   0   2  0  0
  3 2650   0   0   0   0  0  0
  4 380   2   0   0   3  0  0
  5 395   0   0   0   0  0  1
  6  58   0   4   5   0  0  0
  7 4806   0   6   7   0  1  3
  8 614   0   8   8   8  0  0
  9 112149   0   0   0   0  0  0
 10 124   1   0   0   1  0  0
 11  52   0   0   0   2  0  0
 12 2650   0   0   0   0  0  0
 13 380   2   0   0   3  0  0
 14 395   0   0   0   0  0  1
 15  52   0   9  10   0  0  0
 16 4806   0  11  12   0  1  4
 17 614   0   8   8   8  0  0
 18 112149   0   0   0   0  0  0
 19 124   1   0   0   1  0  0
 20  52   0   0   0   2  0  0
 21 2650   0   0   0   0  0  0
 22 380   2   0   0   3  0  0
 23 395   0   0   0   0  0  1
 24  58   0  13  14   0  0  0
 25 4806   0  15  16   0  1  5
 26 614   0   8   8   8  0  0
 27 112149   0   0   0   0  0  0
 28 124   1   0   0   1  0  0
 29  52   0   0   0   2  0  0
 30 2650   0   0   0   0  0  0
 31 380   2   0   0   3  0  0
 32 395   0   0   0   0  0  1
 33  52   0  17  18   0  0  0
 34 4806   0  19  20   0  1  6
 35 614   0   8   8   8  0  0
 36 112149   0   0   0   0  0  0
 37 124   1   0   0   1  0  0
 38  52   0   0   0   2  0  0
 39 2650   0   0   0   0  0  0
 40 380   2   0   0   3  0  0
 41 395   0   0   0   0  0  1
 42  56   0  21  22   0  0  0
 43 4806   0  23  24   0  1  7
 44 614   0   8   8   8  0  0
 45 112149   0   0   0   0  0  0
 46 124   1   0   0   1  0  0
 47  52   0   0   0   2  0  0
 48 2650   0   0   0   0  0  0
 49 380   2   0   0   3  0  0
 50 395   0   0   0   0  0  1
 51  58   0   4   5   0  0  0
 52 4806   0   6   7   0  1  9
 53 614   0   8   8   8  0  0
 54 112149   0   0   0   0  0  0
 55 124   1   0   0   1  0  0
 56  52   0   0   0   2  0  0
 57 2650   0   0   0   0  0  0
 58 380   2   0   0   3  0  0
 59 395   0   0   0   0  0  1
 60  52   0   9  10   0  0  0
 61 4806   0  11  12   0  1 11
 62 614   0   8   8   8  0  0
 63 112149   0   0   0   0  0  0
 64 124   1   0   0   1  0  0
 65  52   0   0   0   2  0  0
 66 2650   0   0   0   0  0  0
 67 380   2   0   0   3  0  0
 68 395   0   0   0   0  0  1
 69  58   0  13  14   0  0  0
 70 4806   0  15  16   0  1 13
 71 614   0   8   8   8  0  0
 72 112149   0   0   0   0  0  0
 73 124   1   0   0   1  0  0
 74  52   0   0   0   2  0  0
 75 2650   0   0   0   0  0  0
 76 380   2   0   0   3  0  0
 77 395   0   0   0   0  0  1
 78  52   0  17  18   0  0  0
 79 4806   0  19  20   0  1 15
 80 614   0   8   8   8  0  0
 81 112149   0   0   0   0  0  0
 82 124   1   0   0   1  0  0
 83  52   0   0   0   2  0  0
 84 2650   0   0   0   0  0  0
 85 380   2   0   0   3  0  0
 86 395   0   0   0   0  0  1
 87  56   0  21  22   0  0  0
 88 4806   0  23  24   0  1 17
 89 614   0   8   8   8  0  0
 90 112149   0   0   0   0  0  0
 91 124   1   0   0   1  0  0
 92  52   0   0   0   2  0  0
 93 2650   0   0   0   0  0  0
 94 380   2   0   0   3  0  0
 95 395   0   0   0   0  0  1
 96  58   0   4   5   0  0  0
 97 4806   0   6   7   0  1 18
 98 614   0   8   8   8  0  0
 99 112149   0   0   0   0  0  0
100 124   1   0   0   1  0  0
101  52   0   0   0   2  0  0
102 2650   0   0   0   0  0  0
103 380   2   0   0   3  0  0
104 395   0   0   0   0  0  1
105  52   0   9  10   0  0  0
106 4806   0  11  12   0  1 19
107 614   0   8   8   8  0  0
108 112149   0   0   0   0  0  0
109 124   1   0   0   1  0  0
110  52   0   0   0   2  0  0
111 2650   0   0   0   0  0  0
112 380   2   0   0   3  0  0
113 395   0   0   0   0  0  1
114  58   0  13  14   0  0  0
115 4806   0  15  16   0  1 20
116 614   0   8   8   8  0  0
117 112149   0   0   0   0  0  0
118 124   1   0   0   1  0  0
119  52   0   0   0   2  0  0
120 2650   0   0   0   0  0  0
121 380   2   0   0   3  0  0
122 395   0   0   0   0  0  1
123  52   0  17  18   0  0  0
124 4806   0  19  20   0  1 21
125 614   0   8   8   8  0  0
126 112149   0   0   0   0  0  0
127 124   1   0   0   1  0  0
128  52   0   0   0   2  0  0
129 2650   0   0   0   0  0  0
130 380   2   0   0   3  0  0
131 395   0   0   0   0  0  1
132  56   0  21  22   0  0  0
133 4806   0  23  24   0  1 22
134 614   0   8   8   8  0  0
135 112149   0   0   0   0  0  0
136 124   1   0   0   1  0  0
137  52   0   0   0   2  0  0
138 2650   0   0   0   0  0  0
139 380   2   0   0   3  0  0
140 395   0   0   0   0  0  1
141  58   0   4   5   0  0  0
142 4806   0   6   7   0  1 23
143 614   0   8   8   8  0  0
144 112149   0   0   0   0  0  0
145 124   1   0   0   1  0  0
146  52   0   0   0   2  0  0
147 2650   0   0   0   0  0  0
148 380   2   0   0   3  0  0
149 395   0   0   0   0  0  1
150  52   0   9  10   0  0  0
151 4806   0  11  12   0  1 24
152 614   0   8   8   8  0  0
153 112149   0   0   0   0  0  0
154 124   1   0   0   1  0  0
155  52   0   0   0   2  0  0
156 2650   0   0   0   0  0  0
157 380   2   0   0   3  0  0
158 395   0   0   0   0  0  1
159  58   0  13  14   0  0  0
160 4806   0  15  16   0  1 25
161 614   0   8   8   8  0  0
162 112149   0   0   0   0  0  0
163 124   1   0   0   1  0  0
164  52   0   0   0   2  0  0
165 2650   0   0   0   0  0  0
166 380   2   0   0   3  0  0
167 395   0   0   0   0  0  1
168  52   0  17  18   0  0  0
169 4806   0  19  20   0  1 26
170 614   0   8   8   8  0  0
171 112149   0   0   0   0  0  0
172 124   1   0   0   1  0  0
173  52   0   0   0   2  0  0
174 2650   0   0   0   0  0  0
175 380   2   0   0   3  0  0
176 395   0   0   0   0  0  1
177  56   0  21  22   0  0  0
178 4806   0  23  24   0  1 27
179 614   0   8   8   8  0  0
180 112149   0   0   0   0  0  0
181 124   1   0   0   1  0  0
182  52   0   0   0   2  0  0
183 2650   0   0   0   0  0  0
184 380   2   0   0   3  0  0
185 395   0   0   0   0  0  1
186  58   0   4   5   0  0  0
187 4806   0   6   7   0  1 28
188 614   0   8   8   8  0  0
189 112149   0   0   0   0  0  0
190 124   1   0   0   1  0  0
191  52   0   0   0   2  0  0
192 2650   0   0   0   0  0  0
193 380   2   0   0   3  0  0
194 395   0   0   0   0  0  1
195  52   0   9  10   0  0  0
196 4806   0  11  12   0  1 29
197 614   0   8   8   8  0  0
198 112149   0   0   0   0  0  0
199 124   1   0   0   1  0  0
200  52   0   0   0   2  0  0
201 2650   0   0   0   0  0  0
202 380   2   0   0   3  0  0
203 395   0   0   0   0  0  1
204  58   0  13  14   0  0  0
205 4806   0  15  16   0  1 30
206 614   0   8   8   8  0  0
207 112149   0   0   0   0  0  0
208 124   1   0   0   1  0  0
209  52   0   0   0   2  0  0
210 2650   0   0   0   0  0  0
211 380   2   0   0   3  0  0
212 395   0   0   0   0  0  1
213  52   0  17  18   0  0  0
214 4806   0  19  20   0  1 31
215 614   0   8   8   8  0  0
216 112149   0   0   0   0  0  0
217 124   1   0   0   1  0  0
218  52   0   0   0   2  0  0
219 2650   0   0   0   0  0  0
220 380   2   0   0   3  0  0
221 395   0   0   0   0  0  1
222  56   0  21  22   0  0  0
223 4806   0  23  24   0  1 32
224 614   0   8   8   8  0  0
225 112149   0   0   0   0  0  0
226 124   1   0   0   1  0  0
227  52   0   0   0   2  0  0
228 2650   0   0   0   0  0  0
229 380   2   0   0   3  0  0
230 395   0   0   0   0  0  1
231  58   0   4   5   0  0  0
232 4806   0   6   7   0  1 33
233 614   0   8   8   8  0  0
234 112149   0   0   0   0  0  0
235 124   1   0   0   1  0  0
236  52   0   0   0   2  0  0
237 2650   0   0   0   0  0  0
238 380   2   0   0   3  0  0
239 395   0   0   0   0  0  1
240  52   0   9  10   0  0  0
241 4806   0  11  12   0  1 34
242 614   0   8   8   8  0  0
243 112149   0   0   0   0  0  0
244 124   1   0   0   1  0  0
245  52   0   0   0   2  0  0
246 2650   0   0   0   0  0  0
247 380   2   0   0   3  0  0
248 395   0   0   0   0  0  1
249  58   0  13  14   0  0  0
250 4806   0  15  16   0  1 35
251 614   0   8   8   8  0  0
252 112149   0   0   0   0  0  0
253 124   1   0   0   1  0  0
254  52   0   0   0   2  0  0
255 2650   0   0   0   0  0  0
256 380   2   0   0   3  0  0
257 395   0   0   0   0  0  1
258  52   0  17  18   0  0  0
259 4806   0  19  20   0  1 36
260 614   0   8   8   8  0  0
261 112149   0   0   0   0  0  0
262 124   1   0   0   1  0  0
263  52   0   0   0   2  0  0
264 2650   0   0   0   0  0  0
265 380   2   0   0   3  0  0
266 395   0   0   0   0  0  1
267  56   0  21  22   0  0  0
268 4806   0  23  24   0  1 37
269 614   0   8   8   8  0  0
270 112149   0   0   0   0  0  0
271 124   1   0   0   1  0  0
272  52   0   0   0   2  0  0
273 2650   0   0   0   0  0  0
274 380   2   0   0   3  0  0
275 395   0   0   0   0  0  1
276  58   0   4   5   0  0  0
277 4806   0   6   7   0  1 38
278 614   0   8   8   8  0  0
279 112149   0   0   0   0  0  0
280 124   1   0   0   1  0  0
281  52   0   0   0   2  0  0
282 2650   0   0   0   0  0  0
283 380   2   0   0   3  0  0
284 395   0   0   0   0  0  1
285  52   0   9  10   0  0  0
286 4806   0  11  12   0  1 39
287 614   0   8   8   8  0  0
288 112149   0   0   0   0  0  0
289 124   1   0   0   1  0  0
290  52   0   0   0   2  0  0
291 2650   0   0   0   0  0  0
292 380   2   0   0   3  0  0
293 395   0   0   0   0  0  1
294  58   0  13  14   0  0  0
295 4806   0  15  16   0  1 40
296 614   0   8   8   8  0  0
297 112149   0   0   0   0  0  0
298 124   1   0   0   1  0  0
299  52   0   0   0   2  0  0
300 2650   0   0   0   0  0  0
301 380   2   0   0   3  0  0
302 395   0   0   0   0  0  1
303  52   0  17  18   0  0  0
304 4806   0  19  20   0  1 41
305 614   0   8   8   8  0  0
306 112149   0   0   0   0  0  0
307 124   1   0   0   1  0  0
308  52   0   0   0   2  0  0
309 2650   0   0   0   0  0  0
310 380   2   0   0   3  0  0
311 395   0   0   0   0  0  1
312  56   0  21  22   0  0  0
313 4806   0  23  24   0  1 42
314 614   0   8   8   8  0  0
315 112149   0   0   0   0  0  0
316 124   1   0   0   1  0  0
317  52   0   0   0   2  0  0
[RF]
1      600.428 1 2 0 120 0 0
2      613.261 3 4 0 900 0 1.5708

# Format of arbitrary gradients:
#   time_shape_id of 0 means default timing (stepping with grad_raster starting at 1/2 of grad_raster)
# id amplitude amp_shape_id time_shape_id delay
# ..      Hz/m       ..         ..          us
[GRADIENTS]
3      1.6e+06 5 6 0
6       747550 7 8 0
7       753475 9 8 0
11      -745177 10 8 0
12       751090 11 8 0
15      -742825 12 8 0
16       748750 13 8 0
19      -752240 14 8 0
20      -746276 15 8 0
23      -749918 16 8 0
24      -744116 17 8 0

# Format of trapezoid gradients:
# id amplitude rise flat fall delay
# ..      Hz/m   us   us   us    us
[TRAP]
 1       400000 120 1000 120   0
 2      -860769 260    0 260   0
 4      -924051 290    0 290   0
 5      -532102 160    0 160   0
 8       331126 100 5940 100   0
 9      -725018 230    0 230   0
10      -870724 260    0 260   0
13       -61310  30    0  30   0
14      -969543 290    0 290   0
17       744446 220    0 220   0
18      -879040 260    0 260   0
21       952993 280    0 280   0
22      -521381 170    0 170   0

# Format of ADC events:
# id num dwell delay freq phase
# ..  ..    ns    us   Hz   rad
[ADC]
1 4760 10000 230 0 0

# Format of extension lists:
# id type ref next_id
# next_id of 0 terminates the list
# Extension list is followed by extension specifications
[EXTENSIONS]
1 1 1 0
2 3 1 0
3 3 2 2
4 3 3 2
5 3 4 2
6 3 5 2
7 3 6 2
8 3 2 0
9 3 7 8
10 3 3 0
11 3 7 10
12 3 4 0
13 3 7 12
14 3 5 0
15 3 7 14
16 3 6 0
17 3 7 16
18 3 8 8
19 3 8 10
20 3 8 12
21 3 8 14
22 3 8 16
23 3 9 8
24 3 9 10
25 3 9 12
26 3 9 14
27 3 9 16
28 3 10 8
29 3 10 10
30 3 10 12
31 3 10 14
32 3 10 16
33 3 11 8
34 3 11 10
35 3 11 12
36 3 11 14
37 3 11 16
38 3 12 8
39 3 12 10
40 3 12 12
41 3 12 14
42 3 12 16
43 3 13 8
44 3 13 10
45 3 13 12
46 3 13 14
47 3 13 16
48 3 14 8
49 3 14 10
50 3 14 12
51 3 14 14
52 3 14 16
53 3 15 8
54 3 15 10
55 3 15 12
56 3 15 14
57 3 15 16

# Extension specification for digital output and input triggers:
# id type channel delay (us) duration (us)
extension TRIGGERS 1
1 1 3 0 20

# Extension specification for setting labels:
# id set labelstring
extension LABELSET 3
1 0 REP
2 0 LIN
3 1 LIN
4 2 LIN
5 3 LIN
6 4 LIN
7 1 REP
8 2 REP
9 3 REP
10 4 REP
11 5 REP
12 6 REP
13 7 REP
14 8 REP
15 9 REP

# Sequence Shapes
[SHAPES]

shape_id 1
num_samples 1000
2.43226397e-07
0.000147870255
0.00029629036
0.00044560327
0.000595909542
0.000747310555
0.000899908493
0.00105380633
0.00120910784
0.00136591754
0.00152434072
0.00168448343
0.00184645243
0.00201035522
0.00217629999
0.00234439564
0.00251475174
0.00268747853
0.00286268693
0.00304048847
0.00322099533
0.00340432028
0.00359057673
0.00377987863
0.00397234055
0.00416807759
0.00436720539
0.00456984015
0.00477609855
0.0049860978
0.00519995557
0.00541779004
0.0056397198
0.00586586391
0.00609634186
0.00633127352
0.0065707792
0.00681497954
0.0070639956
0.00731794873
0.00757696067
0.00784115343
0.00811064934
0.00838557104
0.00866604139
0.00895218354
0.00924412086
0.00954197696
0.00984587562
0.0101559408
0.0104722968
0.0107950677
0.0111243781
0.0114603526
0.0118031158
0.0121527925
0.0125095074
0.0128733856
0.0132445519
0.0136231312
0.0140092486
0.0144030288
0.0148045969
0.0152140776
0.0156315957
0.0160572759
0.0164912429
0.016933621
0.0173845346
0.0178441078
0.0183124647
0.0187897291
0.0192760246
0.0197714745
0.020276202
0.02079033
0.021313981
0.0218472773
0.022390341
0.0229432937
0.0235062566
0.0240793508
0.0246626967
0.0252564145
0.025860624
0.0264754444
0.0271009945
0.0277373927
0.0283847568
0.0290432043
0.0297128519
0.030393816
0.0310862121
0.0317901555
0.0325057607
0.0332331417
0.0339724116
0.0347236833
0.0354870685
0.0362626786
0.0370506242
0.0378510152
0.0386639606
0.0394895688
0.0403279475
0.0411792033
0.0420434424
0.0429207698
0.04381129
0.0447151063
0.0456323214
0.0465630369
0.0475073537
0.0484653716
0.0494371896
0.0504229055
0.0514226165
0.0524364184
0.0534644063
0.0545066741
0.0555633148
0.0566344201
0.057720081
0.058820387
0.0599354267
0.0610652878
0.0622100563
0.0633698177
0.0645446557
0.0657346534
0.0669398922
0.0681604526
0.0693964138
0.0706478538
0.0719148491
0.0731974752
0.0744958062
0.0758099149
0.0771398728
0.0784857501
0.0798476155
0.0812255365
0.0826195792
0.0840298082
0.0854562869
0.0868990771
0.0883582392
0.0898338322
0.0913259137
0.0928345397
0.0943597648
0.0959016421
0.0974602231
0.0990355579
0.100627695
0.102236682
0.103862563
0.105505383
0.107165183
0.108842006
0.110535888
0.112246869
0.113974984
0.115720267
0.117482751
0.119262466
0.121059442
0.122873706
0.124705284
0.126554201
0.128420478
0.130304136
0.132205195
0.134123672
0.136059582
0.138012939
0.139983754
0.141972039
0.143977801
0.146001048
0.148041783
0.15010001
0.15217573
0.154268943
0.156379646
0.158507835
0.160653503
0.162816643
0.164997245
0.167195297
0.169410785
0.171643695
0.173894008
0.176161706
0.178446767
0.180749168
0.183068885
0.185405891
0.187760156
0.19013165
0.192520341
0.194926194
0.197349172
0.199789238
0.20224635
0.204720467
0.207211544
0.209719535
0.212244392
0.214786065
0.217344502
0.219919649
0.22251145
0.225119846
0.227744779
0.230386186
0.233044003
0.235718166
0.238408605
0.241115251
0.243838032
0.246576876
0.249331705
0.252102443
0.25488901
0.257691325
0.260509304
0.26334286
0.266191908
0.269056358
0.271936118
0.274831095
0.277741193
0.280666316
0.283606365
0.286561237
0.28953083
0.29251504
0.295513758
0.298526876
0.301554284
0.304595869
0.307651515
0.310721106
0.313804525
0.316901649
0.320012358
0.323136526
0.326274028
0.329424736
0.332588519
0.335765246
0.338954784
0.342156996
0.345371746
0.348598894
0.351838299
0.355089819
0.358353308
0.361628621
0.364915608
0.36821412
0.371524004
0.374845108
0.378177275
0.381520348
0.384874169
0.388238576
0.391613408
0.394998499
0.398393684
0.401798795
0.405213663
0.408638117
0.412071985
0.415515091
0.41896726
0.422428314
0.425898075
0.42937636
0.432862988
0.436357775
0.439860534
0.443371079
0.446889221
0.45041477
0.453947534
0.457487319
0.46103393
0.464587172
0.468146847
0.471712755
0.475284696
0.478862468
0.482445866
0.486034687
0.489628724
0.49322777
0.496831614
0.500440049
0.50405286
0.507669837
0.511290764
0.514915426
0.518543607
0.522175089
0.525809652
0.529447076
0.53308714
0.536729621
0.540374296
0.54402094
0.547669326
0.551319228
0.554970418
0.558622666
0.562275743
0.565929417
0.569583456
0.573237627
0.576891697
0.580545429
0.584198589
0.58785094
0.591502244
0.595152262
0.598800756
0.602447486
0.60609221
0.609734688
0.613374677
0.617011935
0.620646217
0.624277279
0.627904877
0.631528765
0.635148697
0.638764426
0.642375705
0.645982287
0.649583923
0.653180364
0.656771362
0.660356667
0.663936029
0.667509198
0.671075923
0.674635953
0.678189037
0.681734923
0.68527336
0.688804096
0.692326877
0.695841454
0.699347571
0.702844978
0.706333421
0.709812647
0.713282404
0.716742439
0.720192499
0.723632331
0.727061683
0.730480302
0.733887935
0.737284331
0.740669236
0.7440424
0.74740357
0.750752495
0.754088923
0.757412604
0.760723287
0.764020722
0.76730466
0.77057485
0.773831045
0.777072995
0.780300453
0.783513171
0.786710902
0.7898934
0.79306042
0.796211717
0.799347046
0.802466164
0.805568827
0.808654794
0.811723824
0.814775675
0.817810109
0.820826886
0.823825769
0.82680652
0.829768904
0.832712685
0.83563763
0.838543505
0.841430079
0.844297121
0.847144401
0.84997169
0.852778762
0.85556539
0.858331349
0.861076416
0.863800368
0.866502984
0.869184045
0.871843332
0.874480628
0.877095718
0.879688388
0.882258425
0.884805619
0.887329759
0.889830638
0.892308049
0.894761788
0.897191652
0.899597439
0.901978949
0.904335985
0.90666835
0.90897585
0.911258292
0.913515485
0.915747241
0.917953371
0.920133692
0.922288018
0.92441617
0.926517968
0.928593233
0.930641792
0.93266347
0.934658096
0.936625502
0.938565519
0.940477983
0.942362731
0.944219603
0.94604844
0.947849085
0.949621385
0.951365189
0.953080346
0.95476671
0.956424135
0.95805248
0.959651604
0.961221369
0.962761641
0.964272286
0.965753174
0.967204176
0.968625168
0.970016026
0.97137663
0.972706861
0.974006605
0.975275748
0.976514181
0.977721795
0.978898484
0.980044148
0.981158686
0.982242
0.983293996
0.984314583
0.985303671
0.986261173
0.987187006
0.988081089
0.988943343
0.989773693
0.990572066
0.991338393
0.992072605
0.992774638
0.993444432
0.994081926
0.994687065
0.995259795
0.995800067
0.996307833
0.996783047
0.997225669
0.997635659
0.998012982
0.998357603
0.998669492
0.998948623
0.99919497
0.999408512
0.99958923
0.999737107
0.999852132
0.999934293
0.999983584
1
0.99998354
0.999934205
0.999851999
0.99973693
0.999589008
0.999408246
0.99919466
0.998948269
0.998669094
0.99835716
0.998012495
0.997635129
0.997225094
0.996782429
0.99630717
0.995799361
0.995259045
0.994686271
0.994081088
0.99344355
0.992773713
0.992071636
0.991337381
0.990571011
0.989772595
0.988942202
0.988079905
0.987185779
0.986259903
0.985302358
0.984313228
0.983292599
0.98224056
0.981157204
0.980042624
0.978896918
0.977720187
0.976512531
0.975274057
0.974004873
0.972705088
0.971374815
0.97001417
0.968623272
0.967202239
0.965751196
0.964270268
0.962759583
0.961219272
0.959649467
0.958050303
0.956421919
0.954764455
0.953078052
0.951362856
0.949619014
0.947846675
0.946045991
0.944217117
0.942360207
0.940475422
0.93856292
0.936622866
0.934655424
0.932660761
0.930639046
0.928590451
0.92651515
0.924413316
0.922285129
0.920130767
0.917950412
0.915744247
0.913512457
0.911255229
0.908972753
0.90666522
0.904332821
0.901975752
0.899594208
0.897188389
0.894758492
0.892304721
0.889827278
0.887326368
0.884802196
0.882254972
0.879684904
0.877092203
0.874477083
0.871839757
0.86918044
0.86649935
0.863796705
0.861072724
0.858327629
0.855561641
0.852774986
0.849967886
0.847140569
0.844293262
0.841426194
0.838539594
0.835633692
0.832708722
0.829764915
0.826802506
0.82382173
0.820822823
0.817806022
0.814771564
0.811719689
0.808650637
0.805564647
0.80246196
0.799342821
0.79620747
0.793056151
0.78988911
0.786706591
0.783508839
0.7802961
0.777068623
0.773826653
0.770570439
0.76730023
0.764016274
0.76071882
0.757408119
0.75408442
0.750747974
0.747399033
0.744037846
0.740664666
0.737279745
0.733883334
0.730475685
0.727057051
0.723627685
0.720187838
0.716737764
0.713277716
0.709807945
0.706328706
0.70284025
0.699342832
0.695836702
0.692322114
0.688799321
0.685268575
0.681730127
0.67818423
0.674631137
0.671071097
0.667504363
0.663931185
0.660351815
0.656766501
0.653175495
0.649579046
0.645977403
0.642370814
0.638759528
0.635143793
0.631523855
0.627899962
0.624272358
0.620641291
0.617007004
0.613369743
0.60972975
0.606087268
0.60244254
0.598795807
0.59514731
0.591497289
0.587845983
0.584193631
0.58054047
0.576886736
0.573232666
0.569578494
0.565924454
0.562270781
0.558617704
0.554965457
0.551314268
0.547664367
0.544015982
0.540369341
0.536724668
0.533082189
0.529442127
0.525804706
0.522170146
0.518538669
0.514910492
0.511285834
0.507664911
0.504047939
0.500435132
0.496826704
0.493222864
0.489623825
0.486029794
0.482440979
0.478857587
0.475279823
0.471707889
0.468141989
0.464582322
0.461029088
0.457482484
0.453942708
0.450409953
0.446884413
0.44336628
0.439855745
0.436352995
0.432858218
0.429371601
0.425893326
0.422423576
0.418962533
0.415510375
0.41206728
0.408633425
0.405208982
0.401794126
0.398389027
0.394993855
0.391608777
0.388233958
0.384869564
0.381515757
0.378172697
0.374840544
0.371519454
0.368209584
0.364911087
0.361624114
0.358348817
0.355085342
0.351833838
0.348594448
0.345367316
0.342152581
0.338950385
0.335760864
0.332584153
0.329420386
0.326269695
0.32313221
0.320008059
0.316897367
0.31380026
0.310716859
0.307647285
0.304591657
0.30155009
0.2985227
0.2955096
0.2925109
0.289526709
0.286557134
0.283602281
0.280662251
0.277737148
0.274827068
0.271932111
0.26905237
0.26618794
0.263338912
0.260505374
0.257687416
0.254885121
0.252098574
0.249327856
0.246573047
0.243834224
0.241111463
0.238404837
0.235714419
0.233040277
0.230382481
0.227741095
0.225116183
0.222507807
0.219916028
0.217340902
0.214782486
0.212240835
0.209715999
0.207208029
0.204716974
0.202242878
0.199785788
0.197345744
0.194922787
0.192516956
0.190128287
0.187756815
0.185402572
0.183065588
0.180745893
0.178443514
0.176158475
0.173890799
0.171640508
0.169407621
0.167192154
0.164994125
0.162813545
0.160650427
0.158504781
0.156376614
0.154265934
0.152172743
0.150097045
0.14803884
0.145998127
0.143974903
0.141969163
0.1399809
0.138010107
0.136056772
0.134120885
0.13220243
0.130301393
0.128417756
0.126551501
0.124702607
0.12287105
0.121056808
0.119259854
0.117480161
0.115717699
0.113972438
0.112244345
0.110533386
0.108839525
0.107162724
0.105502945
0.103860147
0.102234287
0.100625322
0.0990332058
0.0974578922
0.0958993324
0.0943574763
0.0928322722
0.0913236672
0.0898316067
0.0883560345
0.0868968932
0.0854541237
0.0840276657
0.0826174572
0.0812234349
0.0798455343
0.0784836892
0.0771378321
0.0758078943
0.0744938056
0.0731954946
0.0719128883
0.0706459127
0.0693944924
0.0681585508
0.0669380098
0.0657327903
0.0645428119
0.063367993
0.0622082508
0.0610635011
0.0599336589
0.0588186379
0.0577183505
0.0566327081
0.0555616211
0.0545049988
0.0534627491
0.0524347792
0.0514209952
0.0504213021
0.0494356038
0.0484638034
0.0475058029
0.0465615034
0.0456308051
0.044713607
0.0438098077
0.0429193043
0.0420419936
0.041177771
0.0403265316
0.0394881692
0.0386625772
0.0378496478
0.0370492727
0.0362613428
0.0354857483
0.0347223786
0.0339711223
0.0332318675
0.0325045017
0.0317889114
0.0310849827
0.0303926012
0.0297116517
0.0290420185
0.0283835852
0.0277362351
0.0270998508
0.0264743145
0.0258595078
0.0252553118
0.0246616074
0.0240782746
0.0235051936
0.0229422435
0.0223893036
0.0218462526
0.0213129687
0.02078933
0.0202752142
0.0197704988
0.0192750607
0.018788777
0.0183115242
0.0178431788
0.0173836168
0.0169327144
0.0164903473
0.0160563912
0.0156307217
0.0152132141
0.0148037438
0.014402186
0.0140084159
0.0136223086
0.013243739
0.0128725824
0.0125087138
0.0121520082
0.0118023408
0.0114595867
0.0111236211
0.0107943195
0.0104715572
0.0101552098
0.00984515296
0.00954126252
0.00924341451
0.00895148513
0.00866535077
0.00838488808
0.0081099739
0.00784048535
0.00757629982
0.00731729498
0.0070633488
0.00681433956
0.00657014589
0.00633064676
0.0060957215
0.00586524982
0.00563911185
0.00541718809
0.00519935949
0.00498550744
0.0047755138
0.00456926087
0.00436663146
0.00416750886
0.00397177691
0.00377931995
0.00359002287
0.00340377113
0.00322045076
0.00303994836
0.00286215115
0.00268694697
0.00251422426
0.00234387213
0.00217578034
0.00200983931
0.00184594014
0.00168397464
0.00152383532
0.00136541542
0.00120860888
0.00105331043
0.000899415537
0.000746820437
0.000595422154
0.000445118505
0.000295808115
0.000147390426

shape_id 2
num_samples 1000
0.9993127
0.0006862
5e-07
2e-07
1e-07
1e-07
0
0
0
0
1e-07
0
0
11
1e-07
0
0
420
-1
0
0
552

shape_id 3
num_samples 2000
2.13995965e-07
6.51944896e-05
0.000130373765
0.000195762833
0.000261372762
0.000327214673
0.000393299737
0.000459639177
0.000526244267
0.000593126333
0.000660296748
0.000727766938
0.000795548377
0.000863652591
0.000932091152
0.00100087568
0.00107001785
0.00113952939
0.00120942204
0.00127970764
0.00135039805
0.00142150516
0.00149304094
0.00156501739
0.00163744656
0.00171034054
0.00178371146
0.00185757152
0.00193193294
0.002006808
0.002082209
0.00215814832
0.00223463835
0.00231169154
0.00238932038
0.0024675374
0.00254635518
0.00262578632
0.00270584349
0.00278653939
0.00286788674
0.00294989833
0.00303258698
0.00311596553
0.0032000469
0.003284844
0.00337036982
0.00345663736
0.00354365967
0.00363144984
0.00372002099
0.00380938627
0.00389955889
0.00399055207
0.00408237907
0.0041750532
0.0042685878
0.00436299622
0.00445829187
0.0045544882
0.00465159866
0.00474963676
0.00484861602
0.00494855003
0.00504945237
0.00515133666
0.00525421657
0.00535810579
0.00546301803
0.00556896703
0.00567596658
0.00578403048
0.00589317256
0.00600340668
0.00611474672
0.0062272066
0.00634080027
0.00645554167
0.00657144482
0.00668852371
0.0068067924
0.00692626495
0.00704695545
0.00716887801
0.00729204677
0.00741647588
0.00754217952
0.0076691719
0.00779746724
0.00792707978
0.00805802378
0.00819031353
0.00832396334
0.00845898751
0.00859540041
0.00873321637
0.00887244979
0.00901311504
0.00915522655
0.00929879874
0.00944384605
0.00959038293
0.00973842387
0.00988798334
0.0100390759
0.0101917159
0.0103459181
0.0105016968
0.0106590668
0.0108180424
0.0109786384
0.0111408693
0.0113047497
0.0114702941
0.0116375173
0.0118064338
0.0119770583
0.0121494054
0.0123234897
0.012499326
0.0126769288
0.0128563129
0.0130374929
0.0132204834
0.0134052993
0.0135919551
0.0137804655
0.0139708453
0.0141631091
0.0143572717
0.0145533476
0.0147513518
0.0149512987
0.0151532032
0.0153570799
0.0155629436
0.0157708089
0.0159806905
0.0161926032
0.0164065615
0.0166225803
0.0168406742
0.0170608579
0.017283146
0.0175075532
0.0177340942
0.0179627837
0.0181936363
0.0184266666
0.0186618893
0.018899319
0.0191389704
0.019380858
0.0196249965
0.0198714004
0.0201200843
0.0203710628
0.0206243505
0.0208799618
0.0211379114
0.0213982137
0.0216608833
0.0219259347
0.0221933822
0.0224632405
0.0227355239
0.0230102468
0.0232874238
0.0235670691
0.0238491971
0.0241338223
0.024420959
0.0247106214
0.0250028239
0.0252975807
0.0255949062
0.0258948146
0.02619732
0.0265024367
0.0268101789
0.0271205607
0.0274335962
0.0277492995
0.0280676848
0.028388766
0.0287125572
0.0290390723
0.0293683255
0.0297003305
0.0300351014
0.030372652
0.0307129961
0.0310561477
0.0314021205
0.0317509282
0.0321025847
0.0324571035
0.0328144985
0.0331747832
0.0335379713
0.0339040763
0.0342731118
0.0346450912
0.0350200281
0.0353979359
0.035778828
0.0361627178
0.0365496186
0.0369395436
0.0373325062
0.0377285196
0.0381275969
0.0385297512
0.0389349957
0.0393433435
0.0397548075
0.0401694006
0.040587136
0.0410080263
0.0414320846
0.0418593235
0.0422897559
0.0427233944
0.0431602517
0.0436003405
0.0440436734
0.0444902627
0.0449401212
0.0453932611
0.0458496949
0.0463094349
0.0467724933
0.0472388826
0.0477086148
0.048181702
0.0486581565
0.0491379901
0.049621215
0.050107843
0.050597886
0.0510913559
0.0515882643
0.0520886232
0.052592444
0.0530997385
0.0536105182
0.0541247946
0.054642579
0.055163883
0.0556887179
0.0562170948
0.0567490251
0.0572845199
0.0578235902
0.0583662471
0.0589125016
0.0594623646
0.060015847
0.0605729595
0.0611337128
0.0616981176
0.0622661846
0.0628379242
0.063413347
0.0639924633
0.0645752834
0.0651618178
0.0657520765
0.0663460697
0.0669438075
0.0675452999
0.0681505568
0.0687595882
0.0693724038
0.0699890133
0.0706094265
0.0712336529
0.0718617021
0.0724935834
0.0731293064
0.0737688802
0.0744123142
0.0750596175
0.0757107992
0.0763658684
0.0770248339
0.0776877046
0.0783544894
0.0790251969
0.0796998358
0.0803784147
0.0810609421
0.0817474263
0.0824378758
0.0831322988
0.0838307034
0.0845330978
0.0852394899
0.0859498879
0.0866642994
0.0873827323
0.0881051942
0.0888316929
0.0895622359
0.0902968305
0.0910354842
0.0917782044
0.0925249981
0.0932758725
0.0940308347
0.0947898916
0.09555305
0.0963203169
0.0970916988
0.0978672025
0.0986468343
0.0994306009
0.100218508
0.101010563
0.101806772
0.10260714
0.103411673
0.104220378
0.10503326
0.105850326
0.10667158
0.107497028
0.108326676
0.109160529
0.109998592
0.110840871
0.111687371
0.112538096
0.113393052
0.114252243
0.115115674
0.11598335
0.116855275
0.117731454
0.118611891
0.119496591
0.120385557
0.121278793
0.122176304
0.123078093
0.123984164
0.124894521
0.125809167
0.126728106
0.127651341
0.128578876
0.129510713
0.130446856
0.131387308
0.132332071
0.133281149
0.134234543
0.135192257
0.136154294
0.137120654
0.138091342
0.139066358
0.140045705
0.141029385
0.1420174
0.143009751
0.14400644
0.145007469
0.146012839
0.147022552
0.148036608
0.149055009
0.150077756
0.15110485
0.152136291
0.153172081
0.154212219
0.155256707
0.156305544
0.157358732
0.158416269
0.159478157
0.160544395
0.161614983
0.162689921
0.163769208
0.164852844
0.165940828
0.16703316
0.168129839
0.169230863
0.170336233
0.171445946
0.172560001
0.173678398
0.174801134
0.175928208
0.177059618
0.178195362
0.179335439
0.180479847
