# Pulseq sequence file
# Created by MATLAB mr toolbox

[VERSION]
major 1
minor 5
revision 1

[DEFINITIONS]
AdcRasterTime 1e-07 
BlockDurationRaster 1e-05 
FOV 0.32 0.32 0.008 
GradientRasterTime 1e-05 
Name 260518_2318_anonymous_cmrf_t1_t2 
RadiofrequencyRasterTime 2e-06 
RequiredExtensions ROTATIONS 
Rot_Matrix 1 0 0 0 1 0 0 0 1 
Scan_ID 605182318 

# Format of blocks:
# NUM DUR RF  GX  GY  GZ  ADC  EXT
[BLOCKS]
   1 472   0   0   0   0  1  0
   2 472   0   0   0   0  1  0
   3 472   0   0   0   0  1  0
   4 472   0   0   0   0  1  0
   5 472   0   0   0   0  1  0
   6 472   0   0   0   0  1  0
   7 472   0   0   0   0  1  0
   8 472   0   0   0   0  1  0
   9 472   0   0   0   0  1  0
  10 472   0   0   0   0  1  0
  11 472   0   0   0   0  1  0
  12 472   0   0   0   0  1  0
  13 472   0   0   0   0  1  0
  14 472   0   0   0   0  1  0
  15 472   0   0   0   0  1  0
  16 472   0   0   0   0  1  0
  17 1001   0   0   0   0  0  1
  18   1   0   0   0   0  0  2
  19 38957   0   0   0   0  0  0
  20 1020   1   0   0   0  0  0
  21 278   0   1   2   3  0  0
  22   1   0   0   0   0  0  0
  23   0   0   0   0   0  0  3
  24  70   2   0   0   4  0  0
  25  30   0   0   0   5  0  0
  26   1   0   0   0   0  0  0
  27 409   0   6   7   8  2  4
  28  50   0   0   0   9  0  0
  29   1   0   0   0   0  0  0
  30   0   0   0   0   0  0  5
  31  70   3   0   0   4  0  0
  32  30   0   0   0   5  0  0
  33   1   0   0   0   0  0  0
  34 409   0   6   7   8  2  6
  35  50   0   0   0   9  0  0
  36   1   0   0   0   0  0  0
  37   0   0   0   0   0  0  7
  38  70   4   0   0   4  0  0
  39  30   0   0   0   5  0  0
  40   1   0   0   0   0  0  0
  41 409   0   6   7   8  2  8
  42  50   0   0   0   9  0  0
  43   1   0   0   0   0  0  0
  44   0   0   0   0   0  0  9
  45  70   5   0   0   4  0  0
  46  30   0   0   0   5  0  0
  47   1   0   0   0   0  0  0
  48 409   0   6   7   8  2 10
  49  50   0   0   0   9  0  0
  50   1   0   0   0   0  0  0
  51   0   0   0   0   0  0 11
  52  70   6   0   0   4  0  0
  53  30   0   0   0   5  0  0
  54   1   0   0   0   0  0  0
  55 409   0   6   7   8  2 12
  56  50   0   0   0   9  0  0
  57   1   0   0   0   0  0  0
  58   0   0   0   0   0  0 13
  59  70   7   0   0   4  0  0
  60  30   0   0   0   5  0  0
  61   1   0   0   0   0  0  0
  62 409   0   6   7   8  2 14
  63  50   0   0   0   9  0  0
  64   1   0   0   0   0  0  0
  65   0   0   0   0   0  0 15
  66  70   8   0   0   4  0  0
  67  30   0   0   0   5  0  0
  68   1   0   0   0   0  0  0
  69 409   0   6   7   8  2 16
  70  50   0   0   0   9  0  0
  71   1   0   0   0   0  0  0
  72   0   0   0   0   0  0 17
  73  70   9   0   0   4  0  0
  74  30   0   0   0   5  0  0
  75   1   0   0   0   0  0  0
  76 409   0   6   7   8  2 18
  77  50   0   0   0   9  0  0
  78   1   0   0   0   0  0  0
  79   0   0   0   0   0  0 19
  80  70  10   0   0   4  0  0
  81  30   0   0   0   5  0  0
  82   1   0   0   0   0  0  0
  83 409   0   6   7   8  2 20
  84  50   0   0   0   9  0  0
  85   1   0   0   0   0  0  0
  86   0   0   0   0   0  0 21
  87  70  11   0   0   4  0  0
  88  30   0   0   0   5  0  0
  89   1   0   0   0   0  0  0
  90 409   0   6   7   8  2 22
  91  50   0   0   0   9  0  0
  92   1   0   0   0   0  0  0
  93   0   0   0   0   0  0 23
  94  70  12   0   0   4  0  0
  95  30   0   0   0   5  0  0
  96   1   0   0   0   0  0  0
  97 409   0   6   7   8  2 24
  98  50   0   0   0   9  0  0
  99   1   0   0   0   0  0  0
 100   0   0   0   0   0  0 25
 101  70  13   0   0   4  0  0
 102  30   0   0   0   5  0  0
 103   1   0   0   0   0  0  0
 104 409   0   6   7   8  2 26
 105  50   0   0   0   9  0  0
 106   1   0   0   0   0  0  0
 107   0   0   0   0   0  0 27
 108  70  14   0   0   4  0  0
 109  30   0   0   0   5  0  0
 110   1   0   0   0   0  0  0
 111 409   0   6   7   8  2 28
 112  50   0   0   0   9  0  0
 113   1   0   0   0   0  0  0
 114   0   0   0   0   0  0 29
 115  70  15   0   0   4  0  0
 116  30   0   0   0   5  0  0
 117   1   0   0   0   0  0  0
 118 409   0   6   7   8  2 30
 119  50   0   0   0   9  0  0
 120   1   0   0   0   0  0  0
 121   0   0   0   0   0  0 31
 122  70  16   0   0   4  0  0
 123  30   0   0   0   5  0  0
 124   1   0   0   0   0  0  0
 125 409   0   6   7   8  2 32
 126  50   0   0   0   9  0  0
 127   1   0   0   0   0  0  0
 128   0   0   0   0   0  0 33
 129  70  17   0   0   4  0  0
 130  30   0   0   0   5  0  0
 131   1   0   0   0   0  0  0
 132 409   0   6   7   8  2 34
 133  50   0   0   0   9  0  0
 134   1   0   0   0   0  0  0
 135   0   0   0   0   0  0 35
 136  70  18   0   0   4  0  0
 137  30   0   0   0   5  0  0
 138   1   0   0   0   0  0  0
 139 409   0   6   7   8  2 36
 140  50   0   0   0   9  0  0
 141   1   0   0   0   0  0  0
 142   0   0   0   0   0  0 37
 143  70  19   0   0   4  0  0
 144  30   0   0   0   5  0  0
 145   1   0   0   0   0  0  0
 146 409   0   6   7   8  2 38
 147  50   0   0   0   9  0  0
 148   1   0   0   0   0  0  0
 149   0   0   0   0   0  0 39
 150  70  20   0   0   4  0  0
 151  30   0   0   0   5  0  0
 152   1   0   0   0   0  0  0
 153 409   0   6   7   8  2 40
 154  50   0   0   0   9  0  0
 155   1   0   0   0   0  0  0
 156   0   0   0   0   0  0 41
 157  70  21   0   0   4  0  0
 158  30   0   0   0   5  0  0
 159   1   0   0   0   0  0  0
 160 409   0   6   7   8  2 42
 161  50   0   0   0   9  0  0
 162   1   0   0   0   0  0  0
 163   0   0   0   0   0  0 43
 164  70  22   0   0   4  0  0
 165  30   0   0   0   5  0  0
 166   1   0   0   0   0  0  0
 167 409   0   6   7   8  2 44
 168  50   0   0   0   9  0  0
 169   1   0   0   0   0  0  0
 170   0   0   0   0   0  0 45
 171  70  23   0   0   4  0  0
 172  30   0   0   0   5  0  0
 173   1   0   0   0   0  0  0
 174 409   0   6   7   8  2 46
 175  50   0   0   0   9  0  0
 176   1   0   0   0   0  0  0
 177   0   0   0   0   0  0 47
 178  70  24   0   0   4  0  0
 179  30   0   0   0   5  0  0
 180   1   0   0   0   0  0  0
 181 409   0   6   7   8  2 48
 182  50   0   0   0   9  0  0
 183   1   0   0   0   0  0  0
 184   0   0   0   0   0  0 49
 185  70  25   0   0   4  0  0
 186  30   0   0   0   5  0  0
 187   1   0   0   0   0  0  0
 188 409   0   6   7   8  2 50
 189  50   0   0   0   9  0  0
 190   1   0   0   0   0  0  0
 191   0   0   0   0   0  0 51
 192  70  26   0   0   4  0  0
 193  30   0   0   0   5  0  0
 194   1   0   0   0   0  0  0
 195 409   0   6   7   8  2 52
 196  50   0   0   0   9  0  0
 197   1   0   0   0   0  0  0
 198   0   0   0   0   0  0 53
 199  70  27   0   0   4  0  0
 200  30   0   0   0   5  0  0
 201   1   0   0   0   0  0  0
 202 409   0   6   7   8  2 54
 203  50   0   0   0   9  0  0
 204   1   0   0   0   0  0  0
 205   0   0   0   0   0  0 55
 206  70  28   0   0   4  0  0
 207  30   0   0   0   5  0  0
 208   1   0   0   0   0  0  0
 209 409   0   6   7   8  2 56
 210  50   0   0   0   9  0  0
 211   1   0   0   0   0  0  0
 212   0   0   0   0   0  0 57
 213  70  29   0   0   4  0  0
 214  30   0   0   0   5  0  0
 215   1   0   0   0   0  0  0
 216 409   0   6   7   8  2 58
 217  50   0   0   0   9  0  0
 218   1   0   0   0   0  0  0
 219   0   0   0   0   0  0 59
 220  70  30   0   0   4  0  0
 221  30   0   0   0   5  0  0
 222   1   0   0   0   0  0  0
 223 409   0   6   7   8  2 60
 224  50   0   0   0   9  0  0
 225   1   0   0   0   0  0  0
 226   0   0   0   0   0  0 61
 227  70  31   0   0   4  0  0
 228  30   0   0   0   5  0  0
 229   1   0   0   0   0  0  0
 230 409   0   6   7   8  2 62
 231  50   0   0   0   9  0  0
 232   1   0   0   0   0  0  0
 233   0   0   0   0   0  0 63
 234  70  32   0   0   4  0  0
 235  30   0   0   0   5  0  0
 236   1   0   0   0   0  0  0
 237 409   0   6   7   8  2 64
 238  50   0   0   0   9  0  0
 239   1   0   0   0   0  0  0
 240   0   0   0   0   0  0 65
 241  70  33   0   0   4  0  0
 242  30   0   0   0   5  0  0
 243   1   0   0   0   0  0  0
 244 409   0   6   7   8  2 66
 245  50   0   0   0   9  0  0
 246   1   0   0   0   0  0  0
 247   0   0   0   0   0  0 67
 248  70  34   0   0   4  0  0
 249  30   0   0   0   5  0  0
 250   1   0   0   0   0  0  0
 251 409   0   6   7   8  2 68
 252  50   0   0   0   9  0  0
 253   1   0   0   0   0  0  0
 254   0   0   0   0   0  0 69
 255  70  35   0   0   4  0  0
 256  30   0   0   0   5  0  0
 257   1   0   0   0   0  0  0
 258 409   0   6   7   8  2 70
 259  50   0   0   0   9  0  0
 260   1   0   0   0   0  0  0
 261   0   0   0   0   0  0 71
 262  70  36   0   0   4  0  0
 263  30   0   0   0   5  0  0
 264   1   0   0   0   0  0  0
 265 409   0   6   7   8  2  4
 266  50   0   0   0   9  0  0
 267   1   0   0   0   0  0  0
 268   0   0   0   0   0  0 72
 269  70  37   0   0   4  0  0
 270  30   0   0   0   5  0  0
 271   1   0   0   0   0  0  0
 272 409   0   6   7   8  2 73
 273  50   0   0   0   9  0  0
 274   1   0   0   0   0  0  0
 275   0   0   0   0   0  0 74
 276  70  38   0   0   4  0  0
 277  30   0   0   0   5  0  0
 278   1   0   0   0   0  0  0
 279 409   0   6   7   8  2 75
 280  50   0   0   0   9  0  0
 281   1   0   0   0   0  0  0
 282   0   0   0   0   0  0 76
 283  70  39   0   0   4  0  0
 284  30   0   0   0   5  0  0
 285   1   0   0   0   0  0  0
 286 409   0   6   7   8  2 10
 287  50   0   0   0   9  0  0
 288   1   0   0   0   0  0  0
 289   0   0   0   0   0  0 77
 290  70  40   0   0   4  0  0
 291  30   0   0   0   5  0  0
 292   1   0   0   0   0  0  0
 293 409   0   6   7   8  2 78
 294  50   0   0   0   9  0  0
 295   1   0   0   0   0  0  0
 296   0   0   0   0   0  0 79
 297  70  41   0   0   4  0  0
 298  30   0   0   0   5  0  0
 299   1   0   0   0   0  0  0
 300 409   0   6   7   8  2 80
 301  50   0   0   0   9  0  0
 302   1   0   0   0   0  0  0
 303   0   0   0   0   0  0 81
 304  70  42   0   0   4  0  0
 305  30   0   0   0   5  0  0
 306   1   0   0   0   0  0  0
 307 409   0   6   7   8  2 16
 308  50   0   0   0   9  0  0
 309   1   0   0   0   0  0  0
[RF]
1          700 1 2 0 5000 100 0 0 0 0 i
2      54.5164 3 4 0 250 100 0 0 0 0 e
3      60.6624 3 4 0 250 100 0 0 0 0 e
4       66.795 3 4 0 250 100 0 0 0 0 e
5      72.9007 3 4 0 250 100 0 0 0 0 e
6      78.9661 3 4 0 250 100 0 0 0 0 e
7      84.9781 3 4 0 250 100 0 0 0 0 e
8      90.9233 3 4 0 250 100 0 0 0 0 e
9      96.7889 3 4 0 250 100 0 0 0 0 e
10      102.562 3 4 0 250 100 0 0 0 0 e
11       108.23 3 4 0 250 100 0 0 0 0 e
12       113.78 3 4 0 250 100 0 0 0 0 e
13      119.201 3 4 0 250 100 0 0 0 0 e
14       124.48 3 4 0 250 100 0 0 0 0 e
15      129.606 3 4 0 250 100 0 0 0 0 e
16      134.567 3 4 0 250 100 0 0 0 0 e
17      139.353 3 4 0 250 100 0 0 0 0 e
18      143.954 3 4 0 250 100 0 0 0 0 e
19      148.359 3 4 0 250 100 0 0 0 0 e
20      152.558 3 4 0 250 100 0 0 0 0 e
21      156.543 3 4 0 250 100 0 0 0 0 e
22      160.304 3 4 0 250 100 0 0 0 0 e
23      163.834 3 4 0 250 100 0 0 0 0 e
24      167.125 3 4 0 250 100 0 0 0 0 e
25      170.169 3 4 0 250 100 0 0 0 0 e
26       172.96 3 4 0 250 100 0 0 0 0 e
27      175.492 3 4 0 250 100 0 0 0 0 e
28      177.759 3 4 0 250 100 0 0 0 0 e
29      179.756 3 4 0 250 100 0 0 0 0 e
30      181.479 3 4 0 250 100 0 0 0 0 e
31      182.924 3 4 0 250 100 0 0 0 0 e
32      184.088 3 4 0 250 100 0 0 0 0 e
33      184.969 3 4 0 250 100 0 0 0 0 e
34      185.564 3 4 0 250 100 0 0 0 0 e
35      185.872 3 4 0 250 100 0 0 0 0 e
36      185.892 3 4 0 250 100 0 0 0 0 e
37      185.625 3 4 0 250 100 0 0 0 0 e
38      185.071 3 4 0 250 100 0 0 0 0 e
39      184.231 3 4 0 250 100 0 0 0 0 e
40      183.108 3 4 0 250 100 0 0 0 0 e
41      181.703 3 4 0 250 100 0 0 0 0 e
42      180.019 3 4 0 250 100 0 0 0 0 e
43      178.061 3 4 0 250 100 0 0 0 0 e
44      175.832 3 4 0 250 100 0 0 0 0 e
45      173.338 3 4 0 250 100 0 0 0 0 e
46      170.584 3 4 0 250 100 0 0 0 0 e
47      167.575 3 4 0 250 100 0 0 0 0 e
48      164.319 3 4 0 250 100 0 0 0 0 e
49      160.823 3 4 0 250 100 0 0 0 0 e
50      137.872 8 9 0 4000 100 0 0 -440.677 0 s
51      61.0881 3 4 0 250 100 0 0 0 0 e
52      67.6455 3 4 0 250 100 0 0 0 0 e
53      74.1741 3 4 0 250 100 0 0 0 0 e
54      80.6597 3 4 0 250 100 0 0 0 0 e
55      87.0881 3 4 0 250 100 0 0 0 0 e
56      93.4452 3 4 0 250 100 0 0 0 0 e
57      99.7171 3 4 0 250 100 0 0 0 0 e
58       105.89 3 4 0 250 100 0 0 0 0 e
59       111.95 3 4 0 250 100 0 0 0 0 e
60      117.885 3 4 0 250 100 0 0 0 0 e
61      123.681 3 4 0 250 100 0 0 0 0 e
62      129.326 3 4 0 250 100 0 0 0 0 e
63      134.807 3 4 0 250 100 0 0 0 0 e
64      140.112 3 4 0 250 100 0 0 0 0 e
65       145.23 3 4 0 250 100 0 0 0 0 e
66      150.149 3 4 0 250 100 0 0 0 0 e
67      154.859 3 4 0 250 100 0 0 0 0 e
68      159.349 3 4 0 250 100 0 0 0 0 e
69       163.61 3 4 0 250 100 0 0 0 0 e
70      167.632 3 4 0 250 100 0 0 0 0 e
71      171.407 3 4 0 250 100 0 0 0 0 e
72      174.925 3 4 0 250 100 0 0 0 0 e
73       178.18 3 4 0 250 100 0 0 0 0 e
74      181.165 3 4 0 250 100 0 0 0 0 e
75      183.872 3 4 0 250 100 0 0 0 0 e
76      186.296 3 4 0 250 100 0 0 0 0 e
77      188.431 3 4 0 250 100 0 0 0 0 e
78      190.274 3 4 0 250 100 0 0 0 0 e
79      191.819 3 4 0 250 100 0 0 0 0 e
80      193.063 3 4 0 250 100 0 0 0 0 e
81      194.005 3 4 0 250 100 0 0 0 0 e
82      194.641 3 4 0 250 100 0 0 0 0 e
83       194.97 3 4 0 250 100 0 0 0 0 e
84      194.992 3 4 0 250 100 0 0 0 0 e
85      194.707 3 4 0 250 100 0 0 0 0 e
86      194.115 3 4 0 250 100 0 0 0 0 e
87      193.217 3 4 0 250 100 0 0 0 0 e
88      192.015 3 4 0 250 100 0 0 0 0 e
89      190.513 3 4 0 250 100 0 0 0 0 e
90      188.712 3 4 0 250 100 0 0 0 0 e
91      186.618 3 4 0 250 100 0 0 0 0 e
92      184.235 3 4 0 250 100 0 0 0 0 e
93      181.568 3 4 0 250 100 0 0 0 0 e
94      178.623 3 4 0 250 100 0 0 0 0 e
95      175.406 3 4 0 250 100 0 0 0 0 e
96      171.925 3 4 0 250 100 0 0 0 0 e
97      168.187 3 4 0 250 100 0 0 0 0 e
98          640 10 11 0 5000 100 0 0 0 1.5708 e
99          500 12 13 0 1000 100 0 0 0 1.5708 r
100          500 12 13 0 1000 100 0 0 0 -1.5708 r
101          640 10 14 0 5000 100 0 0 0 1.5708 e
102      57.4474 3 4 0 250 100 0 0 0 0 e
103       60.372 3 4 0 250 100 0 0 0 0 e
104      63.2838 3 4 0 250 100 0 0 0 0 e
105      66.1764 3 4 0 250 100 0 0 0 0 e
106      69.0435 3 4 0 250 100 0 0 0 0 e
107      71.8787 3 4 0 250 100 0 0 0 0 e
108       74.676 3 4 0 250 100 0 0 0 0 e
109      77.4291 3 4 0 250 100 0 0 0 0 e
110      80.1321 3 4 0 250 100 0 0 0 0 e
111       82.779 3 4 0 250 100 0 0 0 0 e
112      85.3641 3 4 0 250 100 0 0 0 0 e
113      87.8816 3 4 0 250 100 0 0 0 0 e
114      90.3261 3 4 0 250 100 0 0 0 0 e
115      92.6923 3 4 0 250 100 0 0 0 0 e
116      94.9748 3 4 0 250 100 0 0 0 0 e
117      97.1688 3 4 0 250 100 0 0 0 0 e
118      99.2695 3 4 0 250 100 0 0 0 0 e
119      101.272 3 4 0 250 100 0 0 0 0 e
120      103.172 3 4 0 250 100 0 0 0 0 e
121      104.966 3 4 0 250 100 0 0 0 0 e
122       106.65 3 4 0 250 100 0 0 0 0 e
123      108.219 3 4 0 250 100 0 0 0 0 e
124      109.671 3 4 0 250 100 0 0 0 0 e
125      111.002 3 4 0 250 100 0 0 0 0 e
126      112.209 3 4 0 250 100 0 0 0 0 e
127       113.29 3 4 0 250 100 0 0 0 0 e
128      114.243 3 4 0 250 100 0 0 0 0 e
129      115.064 3 4 0 250 100 0 0 0 0 e
130      115.754 3 4 0 250 100 0 0 0 0 e
131      116.309 3 4 0 250 100 0 0 0 0 e
132      116.729 3 4 0 250 100 0 0 0 0 e
133      117.012 3 4 0 250 100 0 0 0 0 e
134      117.159 3 4 0 250 100 0 0 0 0 e
135      117.169 3 4 0 250 100 0 0 0 0 e
136      117.042 3 4 0 250 100 0 0 0 0 e
137      116.778 3 4 0 250 100 0 0 0 0 e
138      116.377 3 4 0 250 100 0 0 0 0 e
139      115.841 3 4 0 250 100 0 0 0 0 e
140      115.171 3 4 0 250 100 0 0 0 0 e
141      114.368 3 4 0 250 100 0 0 0 0 e
142      113.434 3 4 0 250 100 0 0 0 0 e
143      112.371 3 4 0 250 100 0 0 0 0 e
144      111.182 3 4 0 250 100 0 0 0 0 e
145      109.868 3 4 0 250 100 0 0 0 0 e
146      108.434 3 4 0 250 100 0 0 0 0 e
147      106.881 3 4 0 250 100 0 0 0 0 e
148      105.214 3 4 0 250 100 0 0 0 0 e
149      61.1236 3 4 0 250 100 0 0 0 0 e
150      67.7163 3 4 0 250 100 0 0 0 0 e
151      74.2802 3 4 0 250 100 0 0 0 0 e
152      80.8008 3 4 0 250 100 0 0 0 0 e
153      87.2638 3 4 0 250 100 0 0 0 0 e
154      93.6552 3 4 0 250 100 0 0 0 0 e
155      99.9609 3 4 0 250 100 0 0 0 0 e
156      106.167 3 4 0 250 100 0 0 0 0 e
157       112.26 3 4 0 250 100 0 0 0 0 e
158      118.227 3 4 0 250 100 0 0 0 0 e
159      124.054 3 4 0 250 100 0 0 0 0 e
160       129.73 3 4 0 250 100 0 0 0 0 e
161       135.24 3 4 0 250 100 0 0 0 0 e
162      140.574 3 4 0 250 100 0 0 0 0 e
163      145.719 3 4 0 250 100 0 0 0 0 e
164      150.665 3 4 0 250 100 0 0 0 0 e
165        155.4 3 4 0 250 100 0 0 0 0 e
166      159.915 3 4 0 250 100 0 0 0 0 e
167      164.199 3 4 0 250 100 0 0 0 0 e
168      168.242 3 4 0 250 100 0 0 0 0 e
169      172.037 3 4 0 250 100 0 0 0 0 e
170      175.575 3 4 0 250 100 0 0 0 0 e
171      178.847 3 4 0 250 100 0 0 0 0 e
172      181.848 3 4 0 250 100 0 0 0 0 e
173      184.569 3 4 0 250 100 0 0 0 0 e
174      187.007 3 4 0 250 100 0 0 0 0 e
175      189.154 3 4 0 250 100 0 0 0 0 e
176      191.006 3 4 0 250 100 0 0 0 0 e
177      192.559 3 4 0 250 100 0 0 0 0 e
178      193.811 3 4 0 250 100 0 0 0 0 e
179      194.757 3 4 0 250 100 0 0 0 0 e
180      195.397 3 4 0 250 100 0 0 0 0 e
181      195.728 3 4 0 250 100 0 0 0 0 e
182       195.75 3 4 0 250 100 0 0 0 0 e
183      195.463 3 4 0 250 100 0 0 0 0 e
184      194.868 3 4 0 250 100 0 0 0 0 e
185      193.965 3 4 0 250 100 0 0 0 0 e
186      192.757 3 4 0 250 100 0 0 0 0 e
187      191.246 3 4 0 250 100 0 0 0 0 e
188      189.436 3 4 0 250 100 0 0 0 0 e
189      187.331 3 4 0 250 100 0 0 0 0 e
190      184.935 3 4 0 250 100 0 0 0 0 e
191      182.254 3 4 0 250 100 0 0 0 0 e
192      179.293 3 4 0 250 100 0 0 0 0 e
193      176.059 3 4 0 250 100 0 0 0 0 e
194      172.558 3 4 0 250 100 0 0 0 0 e
195        168.8 3 4 0 250 100 0 0 0 0 e
196      59.8099 3 4 0 250 100 0 0 0 0 e
197      65.0918 3 4 0 250 100 0 0 0 0 e
198      70.3506 3 4 0 250 100 0 0 0 0 e
199      75.5747 3 4 0 250 100 0 0 0 0 e
200      80.7528 3 4 0 250 100 0 0 0 0 e
201      85.8734 3 4 0 250 100 0 0 0 0 e
202      90.9253 3 4 0 250 100 0 0 0 0 e
203      95.8976 3 4 0 250 100 0 0 0 0 e
204      100.779 3 4 0 250 100 0 0 0 0 e
205       105.56 3 4 0 250 100 0 0 0 0 e
206      110.228 3 4 0 250 100 0 0 0 0 e
207      114.775 3 4 0 250 100 0 0 0 0 e
208       119.19 3 4 0 250 100 0 0 0 0 e
209      123.463 3 4 0 250 100 0 0 0 0 e
210      127.586 3 4 0 250 100 0 0 0 0 e
211      131.548 3 4 0 250 100 0 0 0 0 e
212      135.342 3 4 0 250 100 0 0 0 0 e
213      138.959 3 4 0 250 100 0 0 0 0 e
214      142.391 3 4 0 250 100 0 0 0 0 e
215      145.631 3 4 0 250 100 0 0 0 0 e
216      148.671 3 4 0 250 100 0 0 0 0 e
217      151.505 3 4 0 250 100 0 0 0 0 e
218      154.127 3 4 0 250 100 0 0 0 0 e
219      156.531 3 4 0 250 100 0 0 0 0 e
220      158.711 3 4 0 250 100 0 0 0 0 e
221      160.664 3 4 0 250 100 0 0 0 0 e
222      162.384 3 4 0 250 100 0 0 0 0 e
223      163.868 3 4 0 250 100 0 0 0 0 e
224      165.113 3 4 0 250 100 0 0 0 0 e
225      166.115 3 4 0 250 100 0 0 0 0 e
226      166.874 3 4 0 250 100 0 0 0 0 e
227      167.386 3 4 0 250 100 0 0 0 0 e
228      167.652 3 4 0 250 100 0 0 0 0 e
229      167.669 3 4 0 250 100 0 0 0 0 e
230      167.439 3 4 0 250 100 0 0 0 0 e
231      166.962 3 4 0 250 100 0 0 0 0 e
232      166.239 3 4 0 250 100 0 0 0 0 e
233      165.271 3 4 0 250 100 0 0 0 0 e
234      164.061 3 4 0 250 100 0 0 0 0 e
235      162.611 3 4 0 250 100 0 0 0 0 e
236      160.924 3 4 0 250 100 0 0 0 0 e
237      159.004 3 4 0 250 100 0 0 0 0 e
238      156.856 3 4 0 250 100 0 0 0 0 e
239      154.484 3 4 0 250 100 0 0 0 0 e
240      151.893 3 4 0 250 100 0 0 0 0 e
241      149.089 3 4 0 250 100 0 0 0 0 e
242      146.077 3 4 0 250 100 0 0 0 0 e
243      57.3097 3 4 0 250 100 0 0 0 0 e
244       60.097 3 4 0 250 100 0 0 0 0 e
245       62.872 3 4 0 250 100 0 0 0 0 e
246      65.6288 3 4 0 250 100 0 0 0 0 e
247      68.3612 3 4 0 250 100 0 0 0 0 e
248      71.0633 3 4 0 250 100 0 0 0 0 e
249      73.7292 3 4 0 250 100 0 0 0 0 e
250       76.353 3 4 0 250 100 0 0 0 0 e
251      78.9291 3 4 0 250 100 0 0 0 0 e
252      81.4517 3 4 0 250 100 0 0 0 0 e
253      83.9153 3 4 0 250 100 0 0 0 0 e
254      86.3146 3 4 0 250 100 0 0 0 0 e
255      88.6443 3 4 0 250 100 0 0 0 0 e
256      90.8993 3 4 0 250 100 0 0 0 0 e
257      93.0747 3 4 0 250 100 0 0 0 0 e
258      95.1656 3 4 0 250 100 0 0 0 0 e
259      97.1676 3 4 0 250 100 0 0 0 0 e
260      99.0763 3 4 0 250 100 0 0 0 0 e
261      100.887 3 4 0 250 100 0 0 0 0 e
262      102.597 3 4 0 250 100 0 0 0 0 e
263      104.201 3 4 0 250 100 0 0 0 0 e
264      105.697 3 4 0 250 100 0 0 0 0 e
265       107.08 3 4 0 250 100 0 0 0 0 e
266      108.349 3 4 0 250 100 0 0 0 0 e
267        109.5 3 4 0 250 100 0 0 0 0 e
268       110.53 3 4 0 250 100 0 0 0 0 e
269      111.438 3 4 0 250 100 0 0 0 0 e
270      112.221 3 4 0 250 100 0 0 0 0 e
271      112.878 3 4 0 250 100 0 0 0 0 e
272      113.407 3 4 0 250 100 0 0 0 0 e
273      113.807 3 4 0 250 100 0 0 0 0 e
274      114.077 3 4 0 250 100 0 0 0 0 e
275      114.217 3 4 0 250 100 0 0 0 0 e
276      114.227 3 4 0 250 100 0 0 0 0 e
277      114.105 3 4 0 250 100 0 0 0 0 e
278      113.853 3 4 0 250 100 0 0 0 0 e
279      113.472 3 4 0 250 100 0 0 0 0 e
280      112.961 3 4 0 250 100 0 0 0 0 e
281      112.322 3 4 0 250 100 0 0 0 0 e
282      111.557 3 4 0 250 100 0 0 0 0 e
283      110.667 3 4 0 250 100 0 0 0 0 e
284      109.654 3 4 0 250 100 0 0 0 0 e
285      108.521 3 4 0 250 100 0 0 0 0 e
286      107.269 3 4 0 250 100 0 0 0 0 e
287      105.901 3 4 0 250 100 0 0 0 0 e
288      104.422 3 4 0 250 100 0 0 0 0 e
289      102.833 3 4 0 250 100 0 0 0 0 e
290      58.1557 3 4 0 250 100 0 0 0 0 e
291       61.787 3 4 0 250 100 0 0 0 0 e
292      65.4024 3 4 0 250 100 0 0 0 0 e
293       68.994 3 4 0 250 100 0 0 0 0 e
294      72.5539 3 4 0 250 100 0 0 0 0 e
295      76.0743 3 4 0 250 100 0 0 0 0 e
296      79.5476 3 4 0 250 100 0 0 0 0 e
297       82.966 3 4 0 250 100 0 0 0 0 e
298      86.3222 3 4 0 250 100 0 0 0 0 e
299      89.6087 3 4 0 250 100 0 0 0 0 e
300      92.8185 3 4 0 250 100 0 0 0 0 e
301      95.9444 3 4 0 250 100 0 0 0 0 e
302      98.9796 3 4 0 250 100 0 0 0 0 e
303      101.917 3 4 0 250 100 0 0 0 0 e
304      104.752 3 4 0 250 100 0 0 0 0 e
305      107.476 3 4 0 250 100 0 0 0 0 e
306      110.084 3 4 0 250 100 0 0 0 0 e
307      112.571 3 4 0 250 100 0 0 0 0 e
308       114.93 3 4 0 250 100 0 0 0 0 e
309      117.158 3 4 0 250 100 0 0 0 0 e
310      119.248 3 4 0 250 100 0 0 0 0 e
311      121.196 3 4 0 250 100 0 0 0 0 e
312      122.999 3 4 0 250 100 0 0 0 0 e
313      124.651 3 4 0 250 100 0 0 0 0 e
314      126.151 3 4 0 250 100 0 0 0 0 e
315      127.493 3 4 0 250 100 0 0 0 0 e
316      128.676 3 4 0 250 100 0 0 0 0 e
317      129.696 3 4 0 250 100 0 0 0 0 e
318      130.552 3 4 0 250 100 0 0 0 0 e
319      131.241 3 4 0 250 100 0 0 0 0 e
320      131.762 3 4 0 250 100 0 0 0 0 e
321      132.114 3 4 0 250 100 0 0 0 0 e
322      132.297 3 4 0 250 100 0 0 0 0 e
323      132.309 3 4 0 250 100 0 0 0 0 e
324      132.151 3 4 0 250 100 0 0 0 0 e
325      131.823 3 4 0 250 100 0 0 0 0 e
326      131.326 3 4 0 250 100 0 0 0 0 e
327       130.66 3 4 0 250 100 0 0 0 0 e
328      129.828 3 4 0 250 100 0 0 0 0 e
329      128.831 3 4 0 250 100 0 0 0 0 e
330      127.672 3 4 0 250 100 0 0 0 0 e
331      126.352 3 4 0 250 100 0 0 0 0 e
332      124.875 3 4 0 250 100 0 0 0 0 e
333      123.244 3 4 0 250 100 0 0 0 0 e
334      121.463 3 4 0 250 100 0 0 0 0 e
335      119.535 3 4 0 250 100 0 0 0 0 e
336      117.465 3 4 0 250 100 0 0 0 0 e
337      59.4103 3 4 0 250 100 0 0 0 0 e
338      64.2935 3 4 0 250 100 0 0 0 0 e
339      69.1553 3 4 0 250 100 0 0 0 0 e
340      73.9851 3 4 0 250 100 0 0 0 0 e
341      78.7723 3 4 0 250 100 0 0 0 0 e
342      83.5063 3 4 0 250 100 0 0 0 0 e
343      88.1769 3 4 0 250 100 0 0 0 0 e
344      92.7739 3 4 0 250 100 0 0 0 0 e
345      97.2871 3 4 0 250 100 0 0 0 0 e
346      101.707 3 4 0 250 100 0 0 0 0 e
347      106.023 3 4 0 250 100 0 0 0 0 e
348      110.226 3 4 0 250 100 0 0 0 0 e
349      114.308 3 4 0 250 100 0 0 0 0 e
350      118.259 3 4 0 250 100 0 0 0 0 e
351       122.07 3 4 0 250 100 0 0 0 0 e
352      125.733 3 4 0 250 100 0 0 0 0 e
353      129.241 3 4 0 250 100 0 0 0 0 e
354      132.585 3 4 0 250 100 0 0 0 0 e
355      135.758 3 4 0 250 100 0 0 0 0 e
356      138.753 3 4 0 250 100 0 0 0 0 e
357      141.564 3 4 0 250 100 0 0 0 0 e
358      144.184 3 4 0 250 100 0 0 0 0 e
359      146.608 3 4 0 250 100 0 0 0 0 e
360       148.83 3 4 0 250 100 0 0 0 0 e
361      150.846 3 4 0 250 100 0 0 0 0 e
362      152.651 3 4 0 250 100 0 0 0 0 e
363      154.242 3 4 0 250 100 0 0 0 0 e
364      155.614 3 4 0 250 100 0 0 0 0 e
365      156.764 3 4 0 250 100 0 0 0 0 e
366      157.691 3 4 0 250 100 0 0 0 0 e
367      158.392 3 4 0 250 100 0 0 0 0 e
368      158.866 3 4 0 250 100 0 0 0 0 e
369      159.111 3 4 0 250 100 0 0 0 0 e
370      159.128 3 4 0 250 100 0 0 0 0 e
371      158.915 3 4 0 250 100 0 0 0 0 e
372      158.474 3 4 0 250 100 0 0 0 0 e
373      157.805 3 4 0 250 100 0 0 0 0 e
374       156.91 3 4 0 250 100 0 0 0 0 e
375      155.792 3 4 0 250 100 0 0 0 0 e
376      154.451 3 4 0 250 100 0 0 0 0 e
377      152.892 3 4 0 250 100 0 0 0 0 e
378      151.117 3 4 0 250 100 0 0 0 0 e
379      149.131 3 4 0 250 100 0 0 0 0 e
380      146.938 3 4 0 250 100 0 0 0 0 e
381      144.542 3 4 0 250 100 0 0 0 0 e
382       141.95 3 4 0 250 100 0 0 0 0 e
383      139.166 3 4 0 250 100 0 0 0 0 e
384      61.3299 3 4 0 250 100 0 0 0 0 e
385      68.1285 3 4 0 250 100 0 0 0 0 e
386      74.8973 3 4 0 250 100 0 0 0 0 e
387      81.6215 3 4 0 250 100 0 0 0 0 e
388      88.2863 3 4 0 250 100 0 0 0 0 e
389      94.8773 3 4 0 250 100 0 0 0 0 e
390       101.38 3 4 0 250 100 0 0 0 0 e
391       107.78 3 4 0 250 100 0 0 0 0 e
392      114.063 3 4 0 250 100 0 0 0 0 e
393      120.216 3 4 0 250 100 0 0 0 0 e
394      126.226 3 4 0 250 100 0 0 0 0 e
395      132.078 3 4 0 250 100 0 0 0 0 e
396      137.761 3 4 0 250 100 0 0 0 0 e
397      143.261 3 4 0 250 100 0 0 0 0 e
398      148.567 3 4 0 250 100 0 0 0 0 e
399      153.667 3 4 0 250 100 0 0 0 0 e
400       158.55 3 4 0 250 100 0 0 0 0 e
401      163.206 3 4 0 250 100 0 0 0 0 e
402      167.623 3 4 0 250 100 0 0 0 0 e
403      171.793 3 4 0 250 100 0 0 0 0 e
404      175.707 3 4 0 250 100 0 0 0 0 e
405      179.355 3 4 0 250 100 0 0 0 0 e
406      182.729 3 4 0 250 100 0 0 0 0 e
407      185.824 3 4 0 250 100 0 0 0 0 e
408       188.63 3 4 0 250 100 0 0 0 0 e
409      191.143 3 4 0 250 100 0 0 0 0 e
410      193.357 3 4 0 250 100 0 0 0 0 e
411      195.268 3 4 0 250 100 0 0 0 0 e
412       196.87 3 4 0 250 100 0 0 0 0 e
413       198.16 3 4 0 250 100 0 0 0 0 e
414      199.136 3 4 0 250 100 0 0 0 0 e
415      199.796 3 4 0 250 100 0 0 0 0 e
416      200.137 3 4 0 250 100 0 0 0 0 e
417       200.16 3 4 0 250 100 0 0 0 0 e
418      199.864 3 4 0 250 100 0 0 0 0 e
419       199.25 3 4 0 250 100 0 0 0 0 e
420      198.319 3 4 0 250 100 0 0 0 0 e
421      197.073 3 4 0 250 100 0 0 0 0 e
422      195.515 3 4 0 250 100 0 0 0 0 e
423      193.649 3 4 0 250 100 0 0 0 0 e
424      191.478 3 4 0 250 100 0 0 0 0 e
425      189.007 3 4 0 250 100 0 0 0 0 e
426      186.242 3 4 0 250 100 0 0 0 0 e
427      183.189 3 4 0 250 100 0 0 0 0 e
428      179.854 3 4 0 250 100 0 0 0 0 e
429      176.244 3 4 0 250 100 0 0 0 0 e
430      172.368 3 4 0 250 100 0 0 0 0 e
431      61.3644 3 4 0 250 100 0 0 0 0 e
432      68.1974 3 4 0 250 100 0 0 0 0 e
433      75.0005 3 4 0 250 100 0 0 0 0 e
434      81.7587 3 4 0 250 100 0 0 0 0 e
435      88.4573 3 4 0 250 100 0 0 0 0 e
436      95.0817 3 4 0 250 100 0 0 0 0 e
437      101.617 3 4 0 250 100 0 0 0 0 e
438       108.05 3 4 0 250 100 0 0 0 0 e
439      114.365 3 4 0 250 100 0 0 0 0 e
440      120.549 3 4 0 250 100 0 0 0 0 e
441      126.589 3 4 0 250 100 0 0 0 0 e
442      132.471 3 4 0 250 100 0 0 0 0 e
443      138.182 3 4 0 250 100 0 0 0 0 e
444       143.71 3 4 0 250 100 0 0 0 0 e
445      149.043 3 4 0 250 100 0 0 0 0 e
446      154.169 3 4 0 250 100 0 0 0 0 e
447      159.077 3 4 0 250 100 0 0 0 0 e
448      163.756 3 4 0 250 100 0 0 0 0 e
449      168.196 3 4 0 250 100 0 0 0 0 e
450      172.387 3 4 0 250 100 0 0 0 0 e
451       176.32 3 4 0 250 100 0 0 0 0 e
452      179.987 3 4 0 250 100 0 0 0 0 e
453      183.379 3 4 0 250 100 0 0 0 0 e
454      186.489 3 4 0 250 100 0 0 0 0 e
455      189.309 3 4 0 250 100 0 0 0 0 e
456      191.835 3 4 0 250 100 0 0 0 0 e
457      194.061 3 4 0 250 100 0 0 0 0 e
458       195.98 3 4 0 250 100 0 0 0 0 e
459      197.591 3 4 0 250 100 0 0 0 0 e
460      198.888 3 4 0 250 100 0 0 0 0 e
461      199.869 3 4 0 250 100 0 0 0 0 e
462      200.532 3 4 0 250 100 0 0 0 0 e
463      200.875 3 4 0 250 100 0 0 0 0 e
464      200.898 3 4 0 250 100 0 0 0 0 e
465        200.6 3 4 0 250 100 0 0 0 0 e
466      199.983 3 4 0 250 100 0 0 0 0 e
467      199.047 3 4 0 250 100 0 0 0 0 e
468      197.795 3 4 0 250 100 0 0 0 0 e
469       196.23 3 4 0 250 100 0 0 0 0 e
470      194.354 3 4 0 250 100 0 0 0 0 e
471      192.172 3 4 0 250 100 0 0 0 0 e
472      189.688 3 4 0 250 100 0 0 0 0 e
473      186.909 3 4 0 250 100 0 0 0 0 e
474       183.84 3 4 0 250 100 0 0 0 0 e
475      180.488 3 4 0 250 100 0 0 0 0 e
476      176.861 3 4 0 250 100 0 0 0 0 e
477      172.965 3 4 0 250 100 0 0 0 0 e
478      57.5906 3 4 0 250 100 0 0 0 0 e
479       60.658 3 4 0 250 100 0 0 0 0 e
480       63.712 3 4 0 250 100 0 0 0 0 e
481      66.7459 3 4 0 250 100 0 0 0 0 e
482      69.7531 3 4 0 250 100 0 0 0 0 e
483      72.7268 3 4 0 250 100 0 0 0 0 e
484      75.6607 3 4 0 250 100 0 0 0 0 e
485      78.5484 3 4 0 250 100 0 0 0 0 e
486      81.3834 3 4 0 250 100 0 0 0 0 e
487      84.1596 3 4 0 250 100 0 0 0 0 e
488      86.8709 3 4 0 250 100 0 0 0 0 e
489      89.5114 3 4 0 250 100 0 0 0 0 e
